Step    T(K)    KE(kJ)    PE(kJ)    TotE(kJ)    P(MPa)
     0      0.150  1.40771e+00 -4.01478e+03 -4.01337e+03  1.16057e+02
    10      0.227  2.12037e+00 -4.01548e+03 -4.01336e+03  1.15968e+02
    20      0.431  4.03250e+00 -4.01734e+03 -4.01331e+03  1.15730e+02
    30      0.760  7.11198e+00 -4.02028e+03 -4.01316e+03  1.15351e+02
    40      1.210  1.13165e+01 -4.02415e+03 -4.01283e+03  1.14841e+02
    50      1.776  1.66086e+01 -4.02880e+03 -4.01219e+03  1.14213e+02
    60      2.456  2.29727e+01 -4.03405e+03 -4.01108e+03  1.13481e+02
    70      3.253  3.04323e+01 -4.03985e+03 -4.00942e+03  1.12657e+02
    80      4.177  3.90674e+01 -4.04641e+03 -4.00734e+03  1.11744e+02
    90      5.241  4.90223e+01 -4.05290e+03 -4.00388e+03  1.10776e+02
   100      6.470  6.05143e+01 -4.05956e+03 -3.99905e+03  1.09756e+02
   110      7.895  7.38520e+01 -4.06618e+03 -3.99233e+03  1.08699e+02
   120      9.562  8.94444e+01 -4.07276e+03 -3.98331e+03  1.07616e+02
   130     11.528  1.07826e+02 -4.07933e+03 -3.97150e+03  1.06515e+02
   140     13.864  1.29681e+02 -4.08566e+03 -3.95598e+03  1.05416e+02
   150     16.665  1.55882e+02 -4.09166e+03 -3.93578e+03  1.04336e+02
   160     20.050  1.87542e+02 -4.09754e+03 -3.91000e+03  1.03286e+02
   170     24.170  2.26079e+02 -4.10325e+03 -3.87717e+03  1.02291e+02
   180     29.218  2.73294e+02 -4.10879e+03 -3.83550e+03  1.01381e+02
   190     35.437  3.31472e+02 -4.11413e+03 -3.78265e+03  1.00594e+02
   200     43.137  4.03494e+02 -4.11919e+03 -3.71570e+03  9.99828e+01
   210     52.704  4.92978e+02 -4.12393e+03 -3.63095e+03  9.96151e+01
   220     64.618  6.04424e+02 -4.12807e+03 -3.52364e+03  9.95833e+01
   230     79.471  7.43356e+02 -4.13106e+03 -3.38770e+03  1.00011e+02
   240     97.977  9.16458e+02 -4.13258e+03 -3.21612e+03  1.01042e+02
   250    120.976  1.13158e+03 -4.13222e+03 -3.00064e+03  1.02849e+02
   260    149.408  1.39753e+03 -4.12992e+03 -2.73239e+03  1.05623e+02
   270    184.256  1.72349e+03 -4.12472e+03 -2.40123e+03  1.09597e+02
   280    226.411  2.11780e+03 -4.11608e+03 -1.99828e+03  1.14990e+02
   290    276.430  2.58566e+03 -4.10264e+03 -1.51698e+03  1.22009e+02
   300    334.149  3.12555e+03 -4.08097e+03 -9.55414e+02  1.30837e+02
   310    398.138  3.72409e+03 -4.04576e+03 -3.21663e+02  1.41554e+02
   320    465.092  4.35036e+03 -3.99113e+03  3.59231e+02  1.54022e+02
   330    529.709  4.95478e+03 -3.90891e+03  1.04586e+03  1.67818e+02
   340    586.554  5.48649e+03 -3.80119e+03  1.68531e+03  1.81673e+02
   350    633.677  5.92727e+03 -3.71095e+03  2.21631e+03  1.92428e+02
   360    670.624  6.27287e+03 -3.68582e+03  2.58705e+03  1.96834e+02
   370    691.307  6.46633e+03 -3.71391e+03  2.75242e+03  1.94636e+02
   380    687.846  6.43396e+03 -3.74533e+03  2.68862e+03  1.87712e+02
   390    658.398  6.15850e+03 -3.75749e+03  2.40101e+03  1.77442e+02
   400    607.552  5.68290e+03 -3.75275e+03  1.93015e+03  1.64682e+02
   410    542.981  5.07892e+03 -3.73806e+03  1.34087e+03  1.50368e+02
   420    472.537  4.42000e+03 -3.72256e+03  6.97445e+02  1.35416e+02
   430    402.615  3.76597e+03 -3.71069e+03  5.52830e+01  1.20716e+02
   440    337.569  3.15754e+03 -3.70347e+03 -5.45926e+02  1.06964e+02
   450    279.820  2.61737e+03 -3.70052e+03 -1.08315e+03  9.45788e+01
   460    230.302  2.15419e+03 -3.70264e+03 -1.54845e+03  8.36769e+01
   470    188.945  1.76735e+03 -3.70827e+03 -1.94092e+03  7.42562e+01
   480    155.072  1.45051e+03 -3.71739e+03 -2.26688e+03  6.61640e+01
   490    127.701  1.19449e+03 -3.73029e+03 -2.53580e+03  5.91984e+01
   500    105.757  9.89229e+02 -3.74563e+03 -2.75641e+03  5.32061e+01
   510     88.206  8.25061e+02 -3.76219e+03 -2.93713e+03  4.80505e+01
   520     74.141  6.93497e+02 -3.77893e+03 -3.08543e+03  4.36136e+01
   530     62.828  5.87678e+02 -3.79493e+03 -3.20725e+03  3.97934e+01
   540     53.734  5.02611e+02 -3.81062e+03 -3.30801e+03  3.64576e+01
   550     46.512  4.35066e+02 -3.82689e+03 -3.39182e+03  3.34633e+01
   560     40.928  3.82834e+02 -3.84455e+03 -3.46172e+03  3.06778e+01
   570     36.741  3.43671e+02 -3.86546e+03 -3.52179e+03  2.79624e+01
   580     33.671  3.14948e+02 -3.88834e+03 -3.57339e+03  2.53031e+01
   590     31.445  2.94125e+02 -3.91291e+03 -3.61878e+03  2.26816e+01
   600     29.850  2.79212e+02 -3.93888e+03 -3.65966e+03  2.00916e+01
   610     28.739  2.68819e+02 -3.96548e+03 -3.69666e+03  1.75459e+01
   620     28.012  2.62015e+02 -3.99234e+03 -3.73033e+03  1.50480e+01
   630     27.600  2.58167e+02 -4.01931e+03 -3.76114e+03  1.25967e+01
   640     27.461  2.56863e+02 -4.04632e+03 -3.78946e+03  1.01884e+01
   650     27.567  2.57858e+02 -4.07369e+03 -3.81583e+03  7.80868e+00
   660     27.907  2.61039e+02 -4.10142e+03 -3.84038e+03  5.45282e+00
   670     28.479  2.66387e+02 -4.12962e+03 -3.86323e+03  3.11325e+00
   680     29.281  2.73886e+02 -4.15813e+03 -3.88424e+03  7.92810e-01
   690     30.304  2.83454e+02 -4.18705e+03 -3.90359e+03 -1.51041e+00
   700     31.527  2.94900e+02 -4.21621e+03 -3.92131e+03 -3.78590e+00
   710     32.926  3.07981e+02 -4.24551e+03 -3.93753e+03 -6.02150e+00
   720     34.477  3.22491e+02 -4.27428e+03 -3.95179e+03 -8.18701e+00
   730     36.167  3.38293e+02 -4.30270e+03 -3.96441e+03 -1.02777e+01
   740     37.989  3.55339e+02 -4.33000e+03 -3.97466e+03 -1.22598e+01
   750     39.944  3.73624e+02 -4.35645e+03 -3.98283e+03 -1.41313e+01
   760     42.032  3.93158e+02 -4.38180e+03 -3.98864e+03 -1.58746e+01
   770     44.254  4.13946e+02 -4.40587e+03 -3.99192e+03 -1.74728e+01
   780     46.612  4.35994e+02 -4.42835e+03 -3.99236e+03 -1.89055e+01
   790     49.105  4.59321e+02 -4.44908e+03 -3.98976e+03 -2.01562e+01
   800     51.742  4.83979e+02 -4.46791e+03 -3.98393e+03 -2.12092e+01
   810     54.532  5.10080e+02 -4.48394e+03 -3.97386e+03 -2.20273e+01
   820     57.495  5.37791e+02 -4.49791e+03 -3.96012e+03 -2.26234e+01
   830     60.653  5.67337e+02 -4.50942e+03 -3.94208e+03 -2.29753e+01
   840     64.038  5.99000e+02 -4.51868e+03 -3.91968e+03 -2.30812e+01
   850     67.684  6.33104e+02 -4.52543e+03 -3.89232e+03 -2.29234e+01
   860     71.627  6.69987e+02 -4.52974e+03 -3.85975e+03 -2.24942e+01
   870     75.896  7.09916e+02 -4.53162e+03 -3.82170e+03 -2.17806e+01
   880     80.506  7.53034e+02 -4.53100e+03 -3.77797e+03 -2.07650e+01
   890     85.457  7.99342e+02 -4.52689e+03 -3.72755e+03 -1.93998e+01
   900     90.742  8.48777e+02 -4.51924e+03 -3.67047e+03 -1.76652e+01
   910     96.353  9.01263e+02 -4.50797e+03 -3.60671e+03 -1.55428e+01
   920    102.287  9.56765e+02 -4.49218e+03 -3.53541e+03 -1.29953e+01
   930    108.562  1.01547e+03 -4.47227e+03 -3.45681e+03 -1.00324e+01
   940    115.240  1.07793e+03 -4.44814e+03 -3.37021e+03 -6.65924e+00
   950    122.438  1.14526e+03 -4.42131e+03 -3.27605e+03 -2.94346e+00
   960    130.329  1.21907e+03 -4.39278e+03 -3.17371e+03  1.05493e+00
   970    139.100  1.30111e+03 -4.36345e+03 -3.06234e+03  5.27895e+00
   980    148.882  1.39261e+03 -4.33565e+03 -2.94303e+03  9.63917e+00
   990    159.705  1.49384e+03 -4.30910e+03 -2.81526e+03  1.41407e+01
  1000    171.459  1.60378e+03 -4.28244e+03 -2.67865e+03  1.88374e+01
  1010    183.911  1.72027e+03 -4.25505e+03 -2.53478e+03  2.37691e+01
  1020    196.738  1.84025e+03 -4.22459e+03 -2.38434e+03  2.90237e+01
  1030    209.495  1.95957e+03 -4.18897e+03 -2.22939e+03  3.46740e+01
  1040    221.694  2.07368e+03 -4.14726e+03 -2.07358e+03  4.07281e+01
  1050    233.184  2.18115e+03 -4.10045e+03 -1.91930e+03  4.70607e+01
  1060    244.152  2.28374e+03 -4.05333e+03 -1.76959e+03  5.33705e+01
  1070    254.314  2.37880e+03 -4.00633e+03 -1.62753e+03  5.95428e+01
  1080    262.867  2.45880e+03 -3.95577e+03 -1.49697e+03  6.56473e+01
  1090    269.171  2.51777e+03 -3.89948e+03 -1.38172e+03  7.16853e+01
  1100    272.996  2.55354e+03 -3.83777e+03 -1.28422e+03  7.75373e+01
  1110    274.554  2.56811e+03 -3.77436e+03 -1.20625e+03  8.29375e+01
  1120    274.653  2.56904e+03 -3.71902e+03 -1.14998e+03  8.73927e+01
  1130    274.277  2.56553e+03 -3.68042e+03 -1.11489e+03  9.04579e+01
  1140    273.556  2.55878e+03 -3.66007e+03 -1.10129e+03  9.20516e+01
  1150    272.018  2.54439e+03 -3.65305e+03 -1.10866e+03  9.23989e+01
  1160    269.465  2.52052e+03 -3.65644e+03 -1.13592e+03  9.16641e+01
  1170    265.437  2.48284e+03 -3.66606e+03 -1.18322e+03  9.01089e+01
  1180    259.454  2.42687e+03 -3.67553e+03 -1.24866e+03  8.80810e+01
  1190    251.720  2.35453e+03 -3.68372e+03 -1.32919e+03  8.56913e+01
  1200    242.956  2.27256e+03 -3.69574e+03 -1.42319e+03  8.27925e+01
  1210    233.775  2.18667e+03 -3.71456e+03 -1.52788e+03  7.93085e+01
  1220    224.477  2.09970e+03 -3.73995e+03 -1.64024e+03  7.52955e+01
  1230    215.181  2.01275e+03 -3.77114e+03 -1.75838e+03  7.08515e+01
  1240    205.947  1.92638e+03 -3.80604e+03 -1.87966e+03  6.61256e+01
  1250    196.599  1.83894e+03 -3.84217e+03 -2.00323e+03  6.13126e+01
  1260    186.807  1.74735e+03 -3.87372e+03 -2.12636e+03  5.67266e+01
  1270    176.522  1.65115e+03 -3.89800e+03 -2.24685e+03  5.25391e+01
  1280    166.106  1.55372e+03 -3.91697e+03 -2.36325e+03  4.87021e+01
  1290    156.162  1.46070e+03 -3.93515e+03 -2.47445e+03  4.50253e+01
  1300    147.173  1.37663e+03 -3.95634e+03 -2.57972e+03  4.13298e+01
  1310    139.230  1.30232e+03 -3.98118e+03 -2.67886e+03  3.75705e+01
  1320    132.256  1.23709e+03 -4.00909e+03 -2.77200e+03  3.37636e+01
  1330    126.169  1.18016e+03 -4.03925e+03 -2.85909e+03  2.99393e+01
  1340    120.786  1.12980e+03 -4.07078e+03 -2.94098e+03  2.61495e+01
  1350    115.871  1.08383e+03 -4.10084e+03 -3.01700e+03  2.25173e+01
  1360    111.312  1.04119e+03 -4.12865e+03 -3.08746e+03  1.90890e+01
  1370    107.152  1.00228e+03 -4.15471e+03 -3.15244e+03  1.58505e+01
  1380    103.457  9.67708e+02 -4.18040e+03 -3.21269e+03  1.27543e+01
  1390    100.175  9.37013e+02 -4.20443e+03 -3.26742e+03  9.84603e+00
  1400     97.174  9.08947e+02 -4.22698e+03 -3.31803e+03  7.14052e+00
  1410     94.385  8.82853e+02 -4.24666e+03 -3.36381e+03  4.68811e+00
  1420     91.850  8.59146e+02 -4.26459e+03 -3.40544e+03  2.44745e+00
  1430     89.645  8.38518e+02 -4.28153e+03 -3.44301e+03  3.79875e-01
  1440     87.775  8.21031e+02 -4.29688e+03 -3.47585e+03 -1.50375e+00
  1450     86.172  8.06037e+02 -4.31030e+03 -3.50426e+03 -3.18857e+00
  1460     84.765  7.92873e+02 -4.32206e+03 -3.52919e+03 -4.67896e+00
  1470     83.561  7.81607e+02 -4.33152e+03 -3.54991e+03 -5.96368e+00
  1480     82.662  7.73204e+02 -4.34006e+03 -3.56686e+03 -7.10864e+00
  1490     82.213  7.69000e+02 -4.34904e+03 -3.58004e+03 -8.18399e+00
  1500     82.308  7.69886e+02 -4.36029e+03 -3.59040e+03 -9.26488e+00
  1510     82.946  7.75858e+02 -4.37326e+03 -3.59740e+03 -1.03361e+01
  1520     84.038  7.86075e+02 -4.38683e+03 -3.60076e+03 -1.13448e+01
  1530     85.440  7.99182e+02 -4.40007e+03 -3.60089e+03 -1.22300e+01
  1540     86.996  8.13744e+02 -4.41126e+03 -3.59751e+03 -1.29034e+01
  1550     88.597  8.28716e+02 -4.41949e+03 -3.59077e+03 -1.33093e+01
  1560     90.207  8.43779e+02 -4.42397e+03 -3.58020e+03 -1.34104e+01
  1570     91.874  8.59372e+02 -4.42529e+03 -3.56592e+03 -1.32268e+01
  1580     93.679  8.76251e+02 -4.42410e+03 -3.54785e+03 -1.27904e+01
  1590     95.677  8.94944e+02 -4.42097e+03 -3.52603e+03 -1.21292e+01
  1600     97.883  9.15573e+02 -4.41646e+03 -3.50088e+03 -1.12655e+01
  1610    100.298  9.38167e+02 -4.41005e+03 -3.47189e+03 -1.01889e+01
  1620    102.953  9.62998e+02 -4.40171e+03 -3.43871e+03 -8.90720e+00
  1630    105.921  9.90764e+02 -4.39218e+03 -3.40142e+03 -7.45890e+00
  1640    109.310  1.02246e+03 -4.38270e+03 -3.36024e+03 -5.90090e+00
  1650    113.215  1.05899e+03 -4.37370e+03 -3.31472e+03 -4.26333e+00
  1660    117.672  1.10067e+03 -4.36556e+03 -3.26488e+03 -2.56250e+00
  1670    122.648  1.14722e+03 -4.35757e+03 -3.21035e+03 -7.71369e-01
  1680    128.083  1.19806e+03 -4.35003e+03 -3.15197e+03  1.11282e+00
  1690    133.926  1.25271e+03 -4.34146e+03 -3.08875e+03  3.14455e+00
  1700    140.109  1.31054e+03 -4.33207e+03 -3.02153e+03  5.32915e+00
  1710    146.511  1.37043e+03 -4.32034e+03 -2.94990e+03  7.72976e+00
  1720    152.967  1.43082e+03 -4.30579e+03 -2.87497e+03  1.03793e+01
  1730    159.315  1.49020e+03 -4.28712e+03 -2.79692e+03  1.33280e+01
  1740    165.458  1.54766e+03 -4.26422e+03 -2.71656e+03  1.65742e+01
  1750    171.372  1.60298e+03 -4.23762e+03 -2.63465e+03  2.00794e+01
  1760    177.074  1.65630e+03 -4.20899e+03 -2.55268e+03  2.37615e+01
  1770    182.503  1.70709e+03 -4.17805e+03 -2.47096e+03  2.76000e+01
  1780    187.483  1.75367e+03 -4.14471e+03 -2.39103e+03  3.15786e+01
  1790    191.860  1.79462e+03 -4.10773e+03 -2.31311e+03  3.57026e+01
  1800    195.672  1.83027e+03 -4.06894e+03 -2.23867e+03  3.98533e+01
  1810    199.126  1.86258e+03 -4.03052e+03 -2.16794e+03  4.38754e+01
  1820    202.468  1.89384e+03 -3.99680e+03 -2.10296e+03  4.75503e+01
  1830    205.842  1.92540e+03 -3.96838e+03 -2.04298e+03  5.07904e+01
  1840    209.161  1.95645e+03 -3.94623e+03 -1.98979e+03  5.35381e+01
  1850    212.234  1.98519e+03 -3.92835e+03 -1.94316e+03  5.58413e+01
  1860    215.139  2.01236e+03 -3.91673e+03 -1.90436e+03  5.76023e+01
  1870    217.909  2.03827e+03 -3.91177e+03 -1.87349e+03  5.87917e+01
  1880    220.045  2.05825e+03 -3.91004e+03 -1.85179e+03  5.95785e+01
  1890    221.111  2.06822e+03 -3.90762e+03 -1.83940e+03  6.01469e+01
  1900    220.985  2.06704e+03 -3.90374e+03 -1.83670e+03  6.05476e+01
  1910    219.647  2.05452e+03 -3.89819e+03 -1.84366e+03  6.08019e+01
  1920    217.237  2.03198e+03 -3.89273e+03 -1.86075e+03  6.08484e+01
  1930    214.155  2.00315e+03 -3.88910e+03 -1.88594e+03  6.05954e+01
  1940    210.649  1.97037e+03 -3.88954e+03 -1.91918e+03  5.99600e+01
  1950    206.559  1.93210e+03 -3.89224e+03 -1.96013e+03  5.90409e+01
  1960    201.793  1.88753e+03 -3.89459e+03 -2.00706e+03  5.79524e+01
  1970    196.658  1.83949e+03 -3.89907e+03 -2.05958e+03  5.66010e+01
  1980    191.639  1.79254e+03 -3.90876e+03 -2.11621e+03  5.48441e+01
  1990    186.992  1.74908e+03 -3.92563e+03 -2.17655e+03  5.26037e+01
  2000    182.604  1.70803e+03 -3.94743e+03 -2.23939e+03  4.99902e+01
  2010    178.161  1.66648e+03 -3.97116e+03 -2.30468e+03  4.71783e+01
  2020    173.331  1.62130e+03 -3.99262e+03 -2.37132e+03  4.43923e+01
  2030    167.911  1.57060e+03 -4.00963e+03 -2.43903e+03  4.17769e+01
  2040    162.019  1.51549e+03 -4.02116e+03 -2.50567e+03  3.93886e+01
  2050    156.112  1.46023e+03 -4.03150e+03 -2.57127e+03  3.70631e+01
  2060    150.767  1.41024e+03 -4.04501e+03 -2.63477e+03  3.46022e+01
  2070    146.345  1.36888e+03 -4.06558e+03 -2.69670e+03  3.18478e+01
  2080    142.743  1.33518e+03 -4.09191e+03 -2.75672e+03  2.88674e+01
  2090    139.534  1.30516e+03 -4.11957e+03 -2.81441e+03  2.58776e+01
  2100    136.303  1.27495e+03 -4.14507e+03 -2.87012e+03  2.30747e+01
  2110    132.815  1.24232e+03 -4.16555e+03 -2.92322e+03  2.06097e+01
  2120    129.010  1.20673e+03 -4.18059e+03 -2.97386e+03  1.85272e+01
  2130    124.966  1.16890e+03 -4.19001e+03 -3.02111e+03  1.68341e+01
  2140    120.846  1.13037e+03 -4.19495e+03 -3.06459e+03  1.54737e+01
  2150    116.850  1.09299e+03 -4.19744e+03 -3.10445e+03  1.43491e+01
  2160    113.174  1.05860e+03 -4.19926e+03 -3.14066e+03  1.33670e+01
  2170    109.948  1.02842e+03 -4.20169e+03 -3.17327e+03  1.24563e+01
  2180    107.159  1.00234e+03 -4.20480e+03 -3.20245e+03  1.16050e+01
  2190    104.693  9.79279e+02 -4.20691e+03 -3.22764e+03  1.08660e+01
  2200    102.514  9.58888e+02 -4.20826e+03 -3.24937e+03  1.02247e+01
  2210    100.749  9.42380e+02 -4.21075e+03 -3.26837e+03  9.58923e+00
  2220     99.587  9.31515e+02 -4.21502e+03 -3.28350e+03  8.89779e+00
  2230     99.124  9.27180e+02 -4.22248e+03 -3.29530e+03  8.08159e+00
  2240     99.328  9.29092e+02 -4.23360e+03 -3.30451e+03  7.12660e+00
  2250    100.109  9.36393e+02 -4.24669e+03 -3.31030e+03  6.10127e+00
  2260    101.338  9.47897e+02 -4.26081e+03 -3.31292e+03  5.06835e+00
  2270    102.838  9.61927e+02 -4.27434e+03 -3.31241e+03  4.12317e+00
  2280    104.405  9.76585e+02 -4.28577e+03 -3.30919e+03  3.36166e+00
  2290    105.878  9.90354e+02 -4.29362e+03 -3.30326e+03  2.87046e+00
  2300    107.179  1.00253e+03 -4.29654e+03 -3.29401e+03  2.70893e+00
  2310    108.362  1.01359e+03 -4.29512e+03 -3.28153e+03  2.85202e+00
  2320    109.624  1.02540e+03 -4.29143e+03 -3.26603e+03  3.19944e+00
  2330    111.253  1.04064e+03 -4.28873e+03 -3.24809e+03  3.60081e+00
  2340    113.457  1.06125e+03 -4.28752e+03 -3.22628e+03  4.00443e+00
  2350    116.225  1.08715e+03 -4.28900e+03 -3.20185e+03  4.37702e+00
  2360    119.371  1.11657e+03 -4.29067e+03 -3.17410e+03  4.82653e+00
  2370    122.650  1.14724e+03 -4.29104e+03 -3.14380e+03  5.44219e+00
  2380    125.876  1.17741e+03 -4.28750e+03 -3.11008e+03  6.33351e+00
  2390    128.981  1.20646e+03 -4.27996e+03 -3.07350e+03  7.51043e+00
  2400    132.018  1.23487e+03 -4.26912e+03 -3.03425e+03  8.93608e+00
  2410    135.107  1.26376e+03 -4.25636e+03 -2.99260e+03  1.05403e+01
  2420    138.340  1.29400e+03 -4.24312e+03 -2.94912e+03  1.22531e+01
  2430    141.723  1.32564e+03 -4.22887e+03 -2.90323e+03  1.40758e+01
  2440    145.174  1.35793e+03 -4.21315e+03 -2.85522e+03  1.60216e+01
  2450    148.609  1.39005e+03 -4.19579e+03 -2.80573e+03  1.80932e+01
  2460    152.038  1.42213e+03 -4.17745e+03 -2.75532e+03  2.02534e+01
  2470    155.545  1.45493e+03 -4.15871e+03 -2.70377e+03  2.24542e+01
  2480    159.204  1.48916e+03 -4.14045e+03 -2.65129e+03  2.46358e+01
  2490    163.078  1.52539e+03 -4.12405e+03 -2.59865e+03  2.67238e+01
  2500    167.213  1.56407e+03 -4.11071e+03 -2.54664e+03  2.86502e+01
  2510    171.654  1.60561e+03 -4.10013e+03 -2.49451e+03  3.03919e+01
  2520    176.542  1.65134e+03 -4.09459e+03 -2.44325e+03  3.18433e+01
  2530    181.904  1.70148e+03 -4.09505e+03 -2.39357e+03  3.29667e+01
  2540    187.233  1.75133e+03 -4.09724e+03 -2.34591e+03  3.39588e+01
  2550    191.803  1.79408e+03 -4.09543e+03 -2.30135e+03  3.50875e+01
  2560    195.197  1.82583e+03 -4.08700e+03 -2.26117e+03  3.64752e+01
  2570    197.336  1.84583e+03 -4.07142e+03 -2.22559e+03  3.81230e+01
  2580    198.319  1.85503e+03 -4.05062e+03 -2.19559e+03  3.99226e+01
  2590    198.487  1.85660e+03 -4.02809e+03 -2.17149e+03  4.16793e+01
  2600    198.481  1.85655e+03 -4.01016e+03 -2.15362e+03  4.30802e+01
  2610    198.835  1.85985e+03 -4.00165e+03 -2.14180e+03  4.38868e+01
  2620    199.398  1.86513e+03 -4.00100e+03 -2.13587e+03  4.41633e+01
  2630    199.486  1.86594e+03 -4.00221e+03 -2.13626e+03  4.41945e+01
  2640    198.619  1.85784e+03 -4.00051e+03 -2.14267e+03  4.42082e+01
  2650    196.835  1.84115e+03 -3.99577e+03 -2.15462e+03  4.42222e+01
  2660    194.411  1.81848e+03 -3.99061e+03 -2.17213e+03  4.41346e+01
  2670    191.524  1.79147e+03 -3.98668e+03 -2.19522e+03  4.38826e+01
  2680    188.248  1.76083e+03 -3.98345e+03 -2.22262e+03  4.34853e+01
  2690    184.738  1.72800e+03 -3.98229e+03 -2.25429e+03  4.28978e+01
  2700    181.252  1.69539e+03 -3.98397e+03 -2.28859e+03  4.20823e+01
  2710    177.918  1.66420e+03 -3.99051e+03 -2.32631e+03  4.09837e+01
  2720    174.636  1.63351e+03 -3.99954e+03 -2.36603e+03  3.97121e+01
  2730    171.282  1.60214e+03 -4.01039e+03 -2.40825e+03  3.83322e+01
  2740    167.765  1.56923e+03 -4.02084e+03 -2.45161e+03  3.69496e+01
  2750    163.974  1.53378e+03 -4.02963e+03 -2.49586e+03  3.56356e+01
  2760    159.909  1.49575e+03 -4.03650e+03 -2.54074e+03  3.44108e+01
  2770    155.742  1.45678e+03 -4.04190e+03 -2.58512e+03  3.32410e+01
  2780    151.721  1.41917e+03 -4.04764e+03 -2.62847e+03  3.20359e+01
  2790    148.080  1.38510e+03 -4.05644e+03 -2.67134e+03  3.06771e+01
  2800    144.953  1.35586e+03 -4.06893e+03 -2.71307e+03  2.91264e+01
  2810    142.270  1.33076e+03 -4.08388e+03 -2.75312e+03  2.74341e+01
  2820    139.833  1.30796e+03 -4.10020e+03 -2.79224e+03  2.56690e+01
  2830    137.521  1.28634e+03 -4.11611e+03 -2.82977e+03  2.39115e+01
