Step    T(K)    KE(kJ)    PE(kJ)    TotE(kJ)    P(MPa)
     0      0.101  4.55079e-01 -1.73047e+03 -1.73002e+03  1.90235e+02
    10      0.413  1.86565e+00 -1.73188e+03 -1.73001e+03  1.89958e+02
    20      1.262  5.69955e+00 -1.73565e+03 -1.72995e+03  1.89205e+02
    30      2.605  1.17631e+01 -1.74148e+03 -1.72972e+03  1.88020e+02
    40      4.386  1.98016e+01 -1.74896e+03 -1.72915e+03  1.86461e+02
    50      6.550  2.95705e+01 -1.75760e+03 -1.72803e+03  1.84598e+02
    60      9.059  4.08991e+01 -1.76700e+03 -1.72610e+03  1.82495e+02
    70     11.902  5.37353e+01 -1.77681e+03 -1.72308e+03  1.80213e+02
    80     15.098  6.81644e+01 -1.78681e+03 -1.71865e+03  1.77798e+02
    90     18.695  8.44052e+01 -1.79686e+03 -1.71246e+03  1.75290e+02
   100     22.768  1.02794e+02 -1.80690e+03 -1.70411e+03  1.72718e+02
   110     27.412  1.23760e+02 -1.81688e+03 -1.69312e+03  1.70111e+02
   120     32.740  1.47811e+02 -1.82679e+03 -1.67898e+03  1.67496e+02
   130     38.875  1.75512e+02 -1.83656e+03 -1.66105e+03  1.64905e+02
   140     45.954  2.07473e+02 -1.84612e+03 -1.63865e+03  1.62374e+02
   150     54.120  2.44338e+02 -1.85534e+03 -1.61101e+03  1.59948e+02
   160     63.516  2.86760e+02 -1.86406e+03 -1.57729e+03  1.57676e+02
   170     74.284  3.35372e+02 -1.87205e+03 -1.53667e+03  1.55615e+02
   180     86.547  3.90736e+02 -1.87907e+03 -1.48833e+03  1.53827e+02
   190    100.399  4.53279e+02 -1.88485e+03 -1.43157e+03  1.52371e+02
   200    115.886  5.23198e+02 -1.88913e+03 -1.36593e+03  1.51304e+02
   210    132.975  6.00347e+02 -1.89163e+03 -1.29128e+03  1.50669e+02
   220    151.524  6.84092e+02 -1.89214e+03 -1.20805e+03  1.50488e+02
   230    171.249  7.73145e+02 -1.89051e+03 -1.11736e+03  1.50756e+02
   240    191.682  8.65398e+02 -1.88660e+03 -1.02121e+03  1.51433e+02
   250    212.145  9.57783e+02 -1.88032e+03 -9.22535e+02  1.52441e+02
   260    231.729  1.04620e+03 -1.87147e+03 -8.25269e+02  1.53677e+02
   270    249.312  1.12558e+03 -1.85969e+03 -7.34104e+02  1.55022e+02
   280    263.637  1.19026e+03 -1.84437e+03 -6.54112e+02  1.56359e+02
   290    273.503  1.23480e+03 -1.82491e+03 -5.90113e+02  1.57567e+02
   300    278.156  1.25580e+03 -1.80172e+03 -5.45919e+02  1.58451e+02
   310    277.679  1.25365e+03 -1.77733e+03 -5.23683e+02  1.58667e+02
   320    272.788  1.23157e+03 -1.75526e+03 -5.23688e+02  1.57845e+02
   330    264.176  1.19269e+03 -1.73728e+03 -5.44587e+02  1.55837e+02
   340    252.601  1.14043e+03 -1.72424e+03 -5.83806e+02  1.52646e+02
   350    239.120  1.07957e+03 -1.71759e+03 -6.38023e+02  1.48274e+02
   360    224.592  1.01398e+03 -1.71767e+03 -7.03690e+02  1.42854e+02
   370    209.349  9.45158e+02 -1.72249e+03 -7.77333e+02  1.36750e+02
   380    193.494  8.73578e+02 -1.72921e+03 -8.55630e+02  1.30404e+02
   390    177.272  8.00339e+02 -1.73584e+03 -9.35501e+02  1.24161e+02
   400    161.123  7.27431e+02 -1.74171e+03 -1.01428e+03  1.18216e+02
   410    145.555  6.57143e+02 -1.74703e+03 -1.08989e+03  1.12636e+02
   420    131.010  5.91479e+02 -1.75238e+03 -1.16091e+03  1.07417e+02
   430    117.804  5.31858e+02 -1.75838e+03 -1.22653e+03  1.02513e+02
   440    106.103  4.79027e+02 -1.76550e+03 -1.28648e+03  9.78711e+01
   450     95.936  4.33128e+02 -1.77398e+03 -1.34085e+03  9.34403e+01
   460     87.235  3.93846e+02 -1.78382e+03 -1.38998e+03  8.91826e+01
   470     79.874  3.60612e+02 -1.79493e+03 -1.43432e+03  8.50687e+01
   480     73.712  3.32791e+02 -1.80717e+03 -1.47438e+03  8.10711e+01
   490     68.623  3.09816e+02 -1.82048e+03 -1.51067e+03  7.71567e+01
   500     64.511  2.91253e+02 -1.83492e+03 -1.54367e+03  7.32837e+01
   510     61.307  2.76786e+02 -1.85063e+03 -1.57384e+03  6.94040e+01
   520     58.952  2.66152e+02 -1.86779e+03 -1.60164e+03  6.54710e+01
   530     57.383  2.59068e+02 -1.88652e+03 -1.62745e+03  6.14486e+01
   540     56.521  2.55180e+02 -1.90680e+03 -1.65162e+03  5.73182e+01
   550     56.273  2.54057e+02 -1.92852e+03 -1.67446e+03  5.30801e+01
   560     56.531  2.55226e+02 -1.95141e+03 -1.69619e+03  4.87508e+01
   570     57.194  2.58218e+02 -1.97520e+03 -1.71698e+03  4.43565e+01
   580     58.169  2.62621e+02 -1.99958e+03 -1.73696e+03  3.99268e+01
   590     59.383  2.68098e+02 -2.02430e+03 -1.75620e+03  3.54900e+01
   600     60.776  2.74390e+02 -2.04916e+03 -1.77477e+03  3.10715e+01
   610     62.303  2.81281e+02 -2.07398e+03 -1.79270e+03  2.66952e+01
   620     63.914  2.88555e+02 -2.09857e+03 -1.81002e+03  2.23872e+01
   630     65.555  2.95963e+02 -2.12268e+03 -1.82672e+03  1.81785e+01
   640     67.161  3.03217e+02 -2.14602e+03 -1.84281e+03  1.41054e+01
   650     68.667  3.10013e+02 -2.16828e+03 -1.85826e+03  1.02069e+01
   660     70.011  3.16081e+02 -2.18914e+03 -1.87306e+03  6.51889e+00
   670     71.150  3.21224e+02 -2.20839e+03 -1.88717e+03  3.06996e+00
   680     72.063  3.25344e+02 -2.22589e+03 -1.90054e+03 -1.22515e-01
   690     72.751  3.28455e+02 -2.24160e+03 -1.91315e+03 -3.05393e+00
   700     73.246  3.30689e+02 -2.25565e+03 -1.92496e+03 -5.73365e+00
   710     73.602  3.32293e+02 -2.26823e+03 -1.93594e+03 -8.18382e+00
   720     73.879  3.33548e+02 -2.27964e+03 -1.94609e+03 -1.04316e+01
   730     74.123  3.34645e+02 -2.29004e+03 -1.95540e+03 -1.24960e+01
   740     74.337  3.35613e+02 -2.29948e+03 -1.96387e+03 -1.43804e+01
   750     74.504  3.36368e+02 -2.30786e+03 -1.97149e+03 -1.60767e+01
   760     74.609  3.36841e+02 -2.31511e+03 -1.97827e+03 -1.75775e+01
   770     74.653  3.37042e+02 -2.32124e+03 -1.98419e+03 -1.88829e+01
   780     74.654  3.37043e+02 -2.32631e+03 -1.98926e+03 -2.00000e+01
   790     74.627  3.36923e+02 -2.33040e+03 -1.99347e+03 -2.09376e+01
   800     74.586  3.36739e+02 -2.33356e+03 -1.99682e+03 -2.17040e+01
   810     74.542  3.36538e+02 -2.33585e+03 -1.99931e+03 -2.23081e+01
   820     74.507  3.36382e+02 -2.33733e+03 -2.00094e+03 -2.27615e+01
   830     74.505  3.36373e+02 -2.33808e+03 -2.00171e+03 -2.30811e+01
   840     74.570  3.36666e+02 -2.33829e+03 -2.00162e+03 -2.32898e+01
   850     74.749  3.37474e+02 -2.33814e+03 -2.00067e+03 -2.34164e+01
   860     75.093  3.39028e+02 -2.33788e+03 -1.99886e+03 -2.34905e+01
   870     75.643  3.41510e+02 -2.33769e+03 -1.99618e+03 -2.35365e+01
   880     76.426  3.45047e+02 -2.33769e+03 -1.99265e+03 -2.35718e+01
   890     77.472  3.49765e+02 -2.33801e+03 -1.98825e+03 -2.36112e+01
   900     78.811  3.55813e+02 -2.33880e+03 -1.98298e+03 -2.36685e+01
   910     80.467  3.63287e+02 -2.34014e+03 -1.97686e+03 -2.37491e+01
   920     82.417  3.72091e+02 -2.34196e+03 -1.96987e+03 -2.38364e+01
   930     84.576  3.81840e+02 -2.34388e+03 -1.96204e+03 -2.38839e+01
   940     86.800  3.91879e+02 -2.34528e+03 -1.95340e+03 -2.38197e+01
   950     88.919  4.01449e+02 -2.34546e+03 -1.94401e+03 -2.35646e+01
   960     90.797  4.09928e+02 -2.34389e+03 -1.93396e+03 -2.30578e+01
   970     92.375  4.17050e+02 -2.34038e+03 -1.92333e+03 -2.22791e+01
   980     93.690  4.22988e+02 -2.33519e+03 -1.91220e+03 -2.12557e+01
   990     94.863  4.28281e+02 -2.32894e+03 -1.90066e+03 -2.00538e+01
  1000     96.047  4.33627e+02 -2.32237e+03 -1.88874e+03 -1.87564e+01
  1010     97.374  4.39622e+02 -2.31612e+03 -1.87650e+03 -1.74368e+01
  1020     98.922  4.46607e+02 -2.31056e+03 -1.86395e+03 -1.61434e+01
  1030    100.733  4.54784e+02 -2.30593e+03 -1.85114e+03 -1.49096e+01
  1040    102.846  4.64323e+02 -2.30243e+03 -1.83811e+03 -1.37634e+01
  1050    105.227  4.75072e+02 -2.29999e+03 -1.82492e+03 -1.27008e+01
  1060    107.708  4.86276e+02 -2.29795e+03 -1.81167e+03 -1.16626e+01
  1070    110.070  4.96937e+02 -2.29542e+03 -1.79849e+03 -1.05706e+01
  1080    112.158  5.06368e+02 -2.29190e+03 -1.78553e+03 -9.37813e+00
  1090    113.889  5.14180e+02 -2.28715e+03 -1.77297e+03 -8.06939e+00
  1100    115.180  5.20010e+02 -2.28096e+03 -1.76095e+03 -6.63394e+00
  1110    115.992  5.23673e+02 -2.27328e+03 -1.74961e+03 -5.08125e+00
  1120    116.428  5.25643e+02 -2.26468e+03 -1.73904e+03 -3.48221e+00
  1130    116.748  5.27087e+02 -2.25638e+03 -1.72929e+03 -1.96866e+00
  1140    117.218  5.29210e+02 -2.24961e+03 -1.72040e+03 -6.68938e-01
  1150    117.955  5.32537e+02 -2.24491e+03 -1.71237e+03  3.58753e-01
  1160    118.911  5.36856e+02 -2.24209e+03 -1.70524e+03  1.13106e+00
  1170    119.944  5.41517e+02 -2.24058e+03 -1.69906e+03  1.70866e+00
  1180    120.860  5.45654e+02 -2.23956e+03 -1.69391e+03  2.17234e+00
  1190    121.472  5.48416e+02 -2.23828e+03 -1.68986e+03  2.59915e+00
  1200    121.653  5.49235e+02 -2.23621e+03 -1.68697e+03  3.03627e+00
  1210    121.384  5.48020e+02 -2.23328e+03 -1.68526e+03  3.48428e+00
  1220    120.749  5.45152e+02 -2.22987e+03 -1.68472e+03  3.89926e+00
  1230    119.891  5.41278e+02 -2.22658e+03 -1.68531e+03  4.21533e+00
  1240    118.945  5.37008e+02 -2.22396e+03 -1.68695e+03  4.37377e+00
  1250    118.002  5.32749e+02 -2.22234e+03 -1.68960e+03  4.33970e+00
  1260    117.115  5.28747e+02 -2.22192e+03 -1.69317e+03  4.09785e+00
  1270    116.319  5.25154e+02 -2.22277e+03 -1.69761e+03  3.64628e+00
  1280    115.598  5.21896e+02 -2.22478e+03 -1.70288e+03  3.00782e+00
  1290    114.880  5.18654e+02 -2.22758e+03 -1.70892e+03  2.23111e+00
  1300    114.079  5.15038e+02 -2.23073e+03 -1.71569e+03  1.37286e+00
  1310    113.093  5.10589e+02 -2.23371e+03 -1.72312e+03  4.96188e-01
  1320    111.844  5.04947e+02 -2.23608e+03 -1.73113e+03 -3.47001e-01
  1330    110.369  4.98288e+02 -2.23793e+03 -1.73964e+03 -1.15452e+00
  1340    108.741  4.90939e+02 -2.23948e+03 -1.74854e+03 -1.93895e+00
  1350    106.905  4.82651e+02 -2.24037e+03 -1.75771e+03 -2.66080e+00
  1360    104.762  4.72975e+02 -2.24002e+03 -1.76705e+03 -3.26306e+00
  1370    102.374  4.62194e+02 -2.23859e+03 -1.77639e+03 -3.75942e+00
  1380     99.996  4.51457e+02 -2.23709e+03 -1.78563e+03 -4.24920e+00
  1390     97.907  4.42025e+02 -2.23668e+03 -1.79466e+03 -4.84796e+00
  1400     96.234  4.34474e+02 -2.23789e+03 -1.80342e+03 -5.60891e+00
  1410     94.917  4.28528e+02 -2.24041e+03 -1.81188e+03 -6.50337e+00
  1420     93.810  4.23530e+02 -2.24355e+03 -1.82002e+03 -7.46204e+00
  1430     92.793  4.18935e+02 -2.24674e+03 -1.82780e+03 -8.42221e+00
  1440     91.791  4.14412e+02 -2.24961e+03 -1.83519e+03 -9.33997e+00
  1450     90.750  4.09715e+02 -2.25188e+03 -1.84216e+03 -1.01804e+01
  1460     89.637  4.04691e+02 -2.25336e+03 -1.84867e+03 -1.09198e+01
  1470     88.478  3.99458e+02 -2.25413e+03 -1.85468e+03 -1.15625e+01
  1480     87.359  3.94406e+02 -2.25455e+03 -1.86014e+03 -1.21421e+01
  1490     86.377  3.89970e+02 -2.25501e+03 -1.86504e+03 -1.26997e+01
  1500     85.616  3.86536e+02 -2.25590e+03 -1.86936e+03 -1.32738e+01
  1510     85.162  3.84488e+02 -2.25758e+03 -1.87310e+03 -1.39025e+01
  1520     85.064  3.84045e+02 -2.26029e+03 -1.87625e+03 -1.46067e+01
  1530     85.280  3.85019e+02 -2.26384e+03 -1.87882e+03 -1.53668e+01
  1540     85.693  3.86883e+02 -2.26771e+03 -1.88083e+03 -1.61289e+01
  1550     86.181  3.89084e+02 -2.27138e+03 -1.88230e+03 -1.68351e+01
  1560     86.658  3.91241e+02 -2.27447e+03 -1.88323e+03 -1.74434e+01
  1570     87.081  3.93149e+02 -2.27679e+03 -1.88364e+03 -1.79293e+01
  1580     87.437  3.94757e+02 -2.27829e+03 -1.88353e+03 -1.82841e+01
  1590     87.746  3.96153e+02 -2.27908e+03 -1.88293e+03 -1.85138e+01
  1600     88.055  3.97545e+02 -2.27938e+03 -1.88183e+03 -1.86371e+01
  1610     88.421  3.99200e+02 -2.27946e+03 -1.88025e+03 -1.86799e+01
  1620     88.900  4.01362e+02 -2.27956e+03 -1.87820e+03 -1.86666e+01
  1630     89.517  4.04145e+02 -2.27983e+03 -1.87569e+03 -1.86108e+01
  1640     90.253  4.07471e+02 -2.28019e+03 -1.87272e+03 -1.85084e+01
  1650     91.061  4.11117e+02 -2.28045e+03 -1.86933e+03 -1.83433e+01
  1660     91.888  4.14853e+02 -2.28039e+03 -1.86553e+03 -1.80995e+01
  1670     92.695  4.18494e+02 -2.27986e+03 -1.86136e+03 -1.77657e+01
  1680     93.434  4.21833e+02 -2.27868e+03 -1.85685e+03 -1.73301e+01
  1690     94.059  4.24651e+02 -2.27666e+03 -1.85201e+03 -1.67809e+01
  1700     94.544  4.26842e+02 -2.27374e+03 -1.84689e+03 -1.61186e+01
  1710     94.920  4.28541e+02 -2.27005e+03 -1.84151e+03 -1.53685e+01
  1720     95.295  4.30233e+02 -2.26612e+03 -1.83589e+03 -1.45888e+01
  1730     95.840  4.32695e+02 -2.26273e+03 -1.83004e+03 -1.38629e+01
  1740     96.697  4.36562e+02 -2.26052e+03 -1.82395e+03 -1.32571e+01
  1750     97.857  4.41799e+02 -2.25946e+03 -1.81766e+03 -1.27717e+01
  1760     99.189  4.47813e+02 -2.25900e+03 -1.81119e+03 -1.23533e+01
  1770    100.580  4.54094e+02 -2.25868e+03 -1.80459e+03 -1.19576e+01
  1780    102.016  4.60579e+02 -2.25849e+03 -1.79791e+03 -1.15836e+01
  1790    103.551  4.67506e+02 -2.25873e+03 -1.79123e+03 -1.12602e+01
  1800    105.227  4.75075e+02 -2.25968e+03 -1.78461e+03 -1.10124e+01
  1810    106.994  4.83052e+02 -2.26117e+03 -1.77812e+03 -1.08224e+01
  1820    108.663  4.90586e+02 -2.26245e+03 -1.77187e+03 -1.06145e+01
  1830    109.990  4.96578e+02 -2.26252e+03 -1.76594e+03 -1.02904e+01
  1840    110.799  5.00229e+02 -2.26068e+03 -1.76045e+03 -9.78236e+00
  1850    111.024  5.01248e+02 -2.25672e+03 -1.75547e+03 -9.07354e+00
  1860    110.705  4.99806e+02 -2.25084e+03 -1.75104e+03 -8.19304e+00
  1870    109.982  4.96544e+02 -2.24370e+03 -1.74715e+03 -7.21471e+00
  1880    109.106  4.92585e+02 -2.23637e+03 -1.74378e+03 -6.25534e+00
  1890    108.356  4.89200e+02 -2.23008e+03 -1.74088e+03 -5.44089e+00
  1900    107.908  4.87176e+02 -2.22558e+03 -1.73840e+03 -4.84699e+00
  1910    107.774  4.86571e+02 -2.22289e+03 -1.73632e+03 -4.47619e+00
  1920    107.872  4.87015e+02 -2.22162e+03 -1.73460e+03 -4.28796e+00
  1930    108.104  4.88065e+02 -2.22133e+03 -1.73326e+03 -4.23372e+00
  1940    108.391  4.89361e+02 -2.22167e+03 -1.73231e+03 -4.27315e+00
  1950    108.675  4.90643e+02 -2.22241e+03 -1.73177e+03 -4.37641e+00
  1960    108.906  4.91684e+02 -2.22333e+03 -1.73164e+03 -4.51755e+00
  1970    109.023  4.92211e+02 -2.22416e+03 -1.73195e+03 -4.66733e+00
  1980    108.955  4.91905e+02 -2.22461e+03 -1.73270e+03 -4.79387e+00
  1990    108.652  4.90538e+02 -2.22442e+03 -1.73388e+03 -4.87650e+00
  2000    108.147  4.88255e+02 -2.22373e+03 -1.73547e+03 -4.93179e+00
  2010    107.592  4.85753e+02 -2.22320e+03 -1.73745e+03 -5.02905e+00
  2020    107.195  4.83958e+02 -2.22374e+03 -1.73978e+03 -5.25786e+00
  2030    107.057  4.83338e+02 -2.22579e+03 -1.74246e+03 -5.66214e+00
  2040    107.129  4.83659e+02 -2.22913e+03 -1.74547e+03 -6.21652e+00
  2050    107.296  4.84415e+02 -2.23324e+03 -1.74882e+03 -6.86540e+00
  2060    107.472  4.85211e+02 -2.23774e+03 -1.75253e+03 -7.55994e+00
  2070    107.571  4.85658e+02 -2.24226e+03 -1.75660e+03 -8.25004e+00
  2080    107.448  4.85103e+02 -2.24614e+03 -1.76104e+03 -8.86089e+00
  2090    106.926  4.82743e+02 -2.24856e+03 -1.76581e+03 -9.30590e+00
  2100    105.902  4.78121e+02 -2.24900e+03 -1.77088e+03 -9.53443e+00
  2110    104.436  4.71503e+02 -2.24767e+03 -1.77616e+03 -9.56862e+00
  2120    102.748  4.63883e+02 -2.24545e+03 -1.78157e+03 -9.50442e+00
  2130    101.134  4.56596e+02 -2.24360e+03 -1.78701e+03 -9.47355e+00
  2140     99.824  4.50679e+02 -2.24310e+03 -1.79242e+03 -9.58055e+00
  2150     98.892  4.46471e+02 -2.24423e+03 -1.79775e+03 -9.86108e+00
  2160     98.282  4.43721e+02 -2.24672e+03 -1.80300e+03 -1.02888e+01
  2170     97.875  4.41884e+02 -2.25002e+03 -1.80814e+03 -1.08024e+01
  2180     97.517  4.40267e+02 -2.25343e+03 -1.81316e+03 -1.13208e+01
  2190     97.031  4.38070e+02 -2.25612e+03 -1.81805e+03 -1.17500e+01
  2200     96.243  4.34513e+02 -2.25729e+03 -1.82278e+03 -1.19986e+01
  2210     95.045  4.29104e+02 -2.25639e+03 -1.82728e+03 -1.20059e+01
  2220     93.434  4.21833e+02 -2.25334e+03 -1.83151e+03 -1.17626e+01
  2230     91.517  4.13176e+02 -2.24855e+03 -1.83537e+03 -1.13132e+01
  2240     89.483  4.03996e+02 -2.24280e+03 -1.83880e+03 -1.07458e+01
  2250     87.576  3.95382e+02 -2.23712e+03 -1.84174e+03 -1.01753e+01
  2260     86.028  3.88396e+02 -2.23252e+03 -1.84412e+03 -9.71576e+00
  2270     84.993  3.83724e+02 -2.22966e+03 -1.84593e+03 -9.44386e+00
  2280     84.495  3.81475e+02 -2.22862e+03 -1.84715e+03 -9.37716e+00
  2290     84.457  3.81301e+02 -2.22907e+03 -1.84777e+03 -9.48424e+00
  2300     84.760  3.82672e+02 -2.23047e+03 -1.84779e+03 -9.71158e+00
  2310     85.293  3.85078e+02 -2.23231e+03 -1.84723e+03 -1.00054e+01
  2320     85.979  3.88176e+02 -2.23427e+03 -1.84609e+03 -1.03271e+01
  2330     86.799  3.91878e+02 -2.23627e+03 -1.84439e+03 -1.06631e+01
  2340     87.779  3.96303e+02 -2.23846e+03 -1.84216e+03 -1.10191e+01
  2350     88.947  4.01574e+02 -2.24097e+03 -1.83940e+03 -1.14012e+01
  2360     90.292  4.07647e+02 -2.24380e+03 -1.83615e+03 -1.17990e+01
  2370     91.766  4.14299e+02 -2.24675e+03 -1.83245e+03 -1.21849e+01
  2380     93.310  4.21273e+02 -2.24962e+03 -1.82834e+03 -1.25281e+01
  2390     94.891  4.28411e+02 -2.25229e+03 -1.82388e+03 -1.28077e+01
  2400     96.477  4.35571e+02 -2.25468e+03 -1.81911e+03 -1.30061e+01
  2410     97.990  4.42400e+02 -2.25651e+03 -1.81411e+03 -1.30880e+01
  2420     99.286  4.48253e+02 -2.25719e+03 -1.80894e+03 -1.29958e+01
  2430    100.222  4.52479e+02 -2.25615e+03 -1.80367e+03 -1.26782e+01
  2440    100.752  4.54869e+02 -2.25324e+03 -1.79837e+03 -1.21329e+01
  2450    100.977  4.55885e+02 -2.24896e+03 -1.79308e+03 -1.14270e+01
  2460    101.119  4.56527e+02 -2.24434e+03 -1.78782e+03 -1.06820e+01
  2470    101.449  4.58016e+02 -2.24061e+03 -1.78259e+03 -1.00401e+01
  2480    102.217  4.61483e+02 -2.23889e+03 -1.77741e+03 -9.63014e+00
  2490    103.584  4.67656e+02 -2.23992e+03 -1.77227e+03 -9.53385e+00
  2500    105.540  4.76489e+02 -2.24370e+03 -1.76721e+03 -9.75030e+00
  2510    107.858  4.86951e+02 -2.24927e+03 -1.76232e+03 -1.01779e+01
  2520    110.146  4.97284e+02 -2.25498e+03 -1.75770e+03 -1.06435e+01
  2530    112.011  5.05702e+02 -2.25919e+03 -1.75349e+03 -1.09727e+01
  2540    113.200  5.11069e+02 -2.26090e+03 -1.74983e+03 -1.10558e+01
  2550    113.665  5.13170e+02 -2.25998e+03 -1.74681e+03 -1.08744e+01
  2560    113.531  5.12562e+02 -2.25704e+03 -1.74448e+03 -1.04852e+01
  2570    112.993  5.10136e+02 -2.25298e+03 -1.74284e+03 -9.97582e+00
  2580    112.197  5.06544e+02 -2.24841e+03 -1.74187e+03 -9.40918e+00
  2590    111.150  5.01816e+02 -2.24333e+03 -1.74151e+03 -8.78682e+00
  2600    109.765  4.95561e+02 -2.23727e+03 -1.74171e+03 -8.06890e+00
  2610    108.003  4.87606e+02 -2.22998e+03 -1.74238e+03 -7.23601e+00
  2620    105.968  4.78419e+02 -2.22183e+03 -1.74341e+03 -6.33143e+00
  2630    103.887  4.69026e+02 -2.21374e+03 -1.74471e+03 -5.45489e+00
  2640    102.046  4.60714e+02 -2.20687e+03 -1.74616e+03 -4.73447e+00
  2650    100.748  4.54854e+02 -2.20253e+03 -1.74768e+03 -4.30724e+00
  2660    100.257  4.52635e+02 -2.20185e+03 -1.74921e+03 -4.28950e+00
  2670    100.645  4.54387e+02 -2.20515e+03 -1.75076e+03 -4.71081e+00
  2680    101.686  4.59087e+02 -2.21144e+03 -1.75235e+03 -5.46755e+00
  2690    102.948  4.64785e+02 -2.21882e+03 -1.75403e+03 -6.36343e+00
  2700    104.003  4.69549e+02 -2.22542e+03 -1.75587e+03 -7.20225e+00
  2710    104.590  4.72197e+02 -2.23009e+03 -1.75790e+03 -7.85945e+00
  2720    104.651  4.72475e+02 -2.23262e+03 -1.76014e+03 -8.30293e+00
  2730    104.292  4.70853e+02 -2.23345e+03 -1.76260e+03 -8.57377e+00
  2740    103.697  4.68169e+02 -2.23341e+03 -1.76524e+03 -8.75197e+00
  2750    103.066  4.65316e+02 -2.23335e+03 -1.76803e+03 -8.92471e+00
  2760    102.548  4.62978e+02 -2.23393e+03 -1.77095e+03 -9.15761e+00
  2770    102.176  4.61298e+02 -2.23527e+03 -1.77397e+03 -9.46247e+00
  2780    101.823  4.59704e+02 -2.23678e+03 -1.77707e+03 -9.78036e+00
  2790    101.271  4.57213e+02 -2.23746e+03 -1.78024e+03 -1.00114e+01
  2800    100.344  4.53027e+02 -2.23647e+03 -1.78344e+03 -1.00739e+01
  2810     99.001  4.46963e+02 -2.23358e+03 -1.78662e+03 -9.94841e+00
  2820     97.376  4.39629e+02 -2.22932e+03 -1.78969e+03 -9.69683e+00
  2830     95.778  4.32415e+02 -2.22501e+03 -1.79260e+03 -9.46075e+00
