Step    T(K)    KE(kJ)    PE(kJ)    TotE(kJ)    P(MPa)
     0      0.404  1.82394e+00 -1.73049e+03 -1.72866e+03  1.90288e+02
    10      0.739  3.33451e+00 -1.73198e+03 -1.72865e+03  1.89990e+02
    20      1.592  7.18808e+00 -1.73575e+03 -1.72856e+03  1.89229e+02
    30      2.927  1.32131e+01 -1.74151e+03 -1.72829e+03  1.88044e+02
    40      4.695  2.11949e+01 -1.74887e+03 -1.72767e+03  1.86490e+02
    50      6.853  3.09389e+01 -1.75741e+03 -1.72647e+03  1.84633e+02
    60      9.375  4.23279e+01 -1.76675e+03 -1.72442e+03  1.82533e+02
    70     12.262  5.53608e+01 -1.77657e+03 -1.72121e+03  1.80250e+02
    80     15.543  7.01711e+01 -1.78665e+03 -1.71648e+03  1.77830e+02
    90     19.277  8.70316e+01 -1.79684e+03 -1.70981e+03  1.75317e+02
   100     23.557  1.06353e+02 -1.80703e+03 -1.70068e+03  1.72747e+02
   110     28.504  1.28686e+02 -1.81716e+03 -1.68848e+03  1.70155e+02
   120     34.273  1.54734e+02 -1.82719e+03 -1.67245e+03  1.67576e+02
   130     41.059  1.85372e+02 -1.83704e+03 -1.65167e+03  1.65053e+02
   140     49.103  2.21686e+02 -1.84667e+03 -1.62498e+03  1.62636e+02
   150     58.700  2.65017e+02 -1.85596e+03 -1.59095e+03  1.60387e+02
   160     70.218  3.17016e+02 -1.86478e+03 -1.54777e+03  1.58385e+02
   170     84.106  3.79717e+02 -1.87294e+03 -1.49322e+03  1.56736e+02
   180    100.920  4.55627e+02 -1.88017e+03 -1.42454e+03  1.55568e+02
   190    121.346  5.47849e+02 -1.88615e+03 -1.33830e+03  1.55048e+02
   200    146.236  6.60217e+02 -1.89052e+03 -1.23030e+03  1.55381e+02
   210    176.637  7.97472e+02 -1.89287e+03 -1.09539e+03  1.56814e+02
   220    213.835  9.65414e+02 -1.89277e+03 -9.27357e+02  1.59648e+02
   230    259.375  1.17101e+03 -1.88980e+03 -7.18791e+02  1.64234e+02
   240    315.043  1.42234e+03 -1.88345e+03 -4.61110e+02  1.70992e+02
   250    382.775  1.72813e+03 -1.87290e+03 -1.44769e+02  1.80416e+02
   260    464.404  2.09667e+03 -1.85658e+03  2.40092e+02  1.93093e+02
   270    561.216  2.53375e+03 -1.83142e+03  7.02335e+02  2.09707e+02
   280    673.578  3.04104e+03 -1.79332e+03  1.24771e+03  2.30884e+02
   290    801.478  3.61848e+03 -1.74199e+03  1.87649e+03  2.56620e+02
   300    945.060  4.26671e+03 -1.68528e+03  2.58143e+03  2.85780e+02
   310   1103.887  4.98378e+03 -1.63835e+03  3.34543e+03  3.16095e+02
   320   1275.936  5.76053e+03 -1.62207e+03  4.13847e+03  3.44314e+02
   330   1451.058  6.55117e+03 -1.63800e+03  4.91316e+03  3.68403e+02
   340   1609.739  7.26758e+03 -1.66530e+03  5.60227e+03  3.87748e+02
   350   1730.679  7.81359e+03 -1.68613e+03  6.12746e+03  4.01117e+02
   360   1798.044  8.11772e+03 -1.69932e+03  6.41841e+03  4.06088e+02
   370   1803.867  8.14401e+03 -1.71167e+03  6.43235e+03  4.00643e+02
   380   1745.464  7.88034e+03 -1.71440e+03  6.16594e+03  3.85866e+02
   390   1616.467  7.29795e+03 -1.63870e+03  5.65924e+03  3.69848e+02
   400   1439.993  6.50121e+03 -1.50982e+03  4.99139e+03  3.53301e+02
   410   1275.871  5.76024e+03 -1.52106e+03  4.23918e+03  3.21891e+02
   420   1066.347  4.81429e+03 -1.34227e+03  3.47202e+03  3.07244e+02
   430    929.876  4.19816e+03 -1.44806e+03  2.75010e+03  2.69731e+02
   440    790.013  3.56672e+03 -1.49738e+03  2.06934e+03  2.38811e+02
   450    642.249  2.89959e+03 -1.42512e+03  1.47447e+03  2.22305e+02
   460    528.810  2.38745e+03 -1.41422e+03  9.73224e+02  2.03750e+02
   470    448.002  2.02262e+03 -1.47479e+03  5.47831e+02  1.81159e+02
   480    393.224  1.77531e+03 -1.59752e+03  1.77786e+02  1.54800e+02
   490    341.116  1.54005e+03 -1.68547e+03 -1.45420e+02  1.33289e+02
   500    294.404  1.32916e+03 -1.75187e+03 -4.22711e+02  1.15635e+02
   510    253.682  1.14531e+03 -1.80392e+03 -6.58611e+02  1.01013e+02
   520    218.241  9.85303e+02 -1.84319e+03 -8.57892e+02  8.90930e+01
   530    186.969  8.44121e+02 -1.86895e+03 -1.02483e+03  7.97341e+01
   540    160.767  7.25823e+02 -1.88960e+03 -1.16377e+03  7.19310e+01
   550    140.689  6.35175e+02 -1.91528e+03 -1.28011e+03  6.44717e+01
   560    125.939  5.68584e+02 -1.94776e+03 -1.37918e+03  5.69427e+01
   570    114.451  5.16719e+02 -1.98161e+03 -1.46489e+03  4.96868e+01
   580    104.605  4.72266e+02 -2.01177e+03 -1.53950e+03  4.31038e+01
   590     95.938  4.33135e+02 -2.03760e+03 -1.60446e+03  3.72284e+01
   600     88.595  3.99984e+02 -2.06104e+03 -1.66106e+03  3.18562e+01
   610     82.665  3.73214e+02 -2.08378e+03 -1.71057e+03  2.68030e+01
   620     77.900  3.51701e+02 -2.10583e+03 -1.75412e+03  2.20463e+01
   630     73.909  3.33679e+02 -2.12624e+03 -1.79256e+03  1.76618e+01
   640     70.439  3.18013e+02 -2.14446e+03 -1.82645e+03  1.36974e+01
   650     67.404  3.04311e+02 -2.16056e+03 -1.85625e+03  1.01433e+01
   660     64.770  2.92419e+02 -2.17476e+03 -1.88234e+03  6.96973e+00
   670     62.492  2.82138e+02 -2.18719e+03 -1.90505e+03  4.15282e+00
   680     60.542  2.73330e+02 -2.19799e+03 -1.92466e+03  1.66534e+00
   690     58.945  2.66121e+02 -2.20753e+03 -1.94141e+03 -5.42587e-01
   700     57.793  2.60922e+02 -2.21645e+03 -1.95553e+03 -2.54605e+00
   710     57.181  2.58158e+02 -2.22537e+03 -1.96721e+03 -4.41735e+00
   720     57.110  2.57838e+02 -2.23444e+03 -1.97661e+03 -6.18134e+00
   730     57.459  2.59413e+02 -2.24322e+03 -1.98381e+03 -7.79938e+00
   740     58.056  2.62109e+02 -2.25095e+03 -1.98884e+03 -9.20089e+00
   750     58.778  2.65370e+02 -2.25704e+03 -1.99167e+03 -1.03301e+01
   760     59.611  2.69130e+02 -2.26138e+03 -1.99225e+03 -1.11770e+01
   770     60.647  2.73805e+02 -2.26434e+03 -1.99054e+03 -1.17780e+01
   780     62.018  2.79997e+02 -2.26643e+03 -1.98643e+03 -1.21860e+01
   790     63.827  2.88162e+02 -2.26798e+03 -1.97982e+03 -1.24360e+01
   800     66.142  2.98616e+02 -2.26914e+03 -1.97053e+03 -1.25425e+01
   810     69.053  3.11757e+02 -2.27006e+03 -1.95831e+03 -1.25181e+01
   820     72.693  3.28193e+02 -2.27104e+03 -1.94285e+03 -1.23815e+01
   830     77.225  3.48654e+02 -2.27239e+03 -1.92373e+03 -1.21456e+01
   840     82.808  3.73859e+02 -2.27427e+03 -1.90041e+03 -1.18001e+01
   850     89.578  4.04424e+02 -2.27663e+03 -1.87221e+03 -1.12986e+01
   860     97.610  4.40685e+02 -2.27898e+03 -1.83830e+03 -1.05423e+01
   870    106.868  4.82485e+02 -2.28024e+03 -1.79776e+03 -9.36511e+00
   880    117.254  5.29373e+02 -2.27898e+03 -1.74961e+03 -7.56275e+00
   890    128.763  5.81332e+02 -2.27417e+03 -1.69283e+03 -4.96645e+00
   900    141.623  6.39392e+02 -2.26570e+03 -1.62630e+03 -1.49331e+00
   910    156.227  7.05327e+02 -2.25401e+03 -1.54869e+03  2.89827e+00
   920    172.815  7.80218e+02 -2.23863e+03 -1.45841e+03  8.34514e+00
   930    191.255  8.63469e+02 -2.21730e+03 -1.35383e+03  1.51427e+01
   940    211.594  9.55295e+02 -2.18869e+03 -1.23339e+03  2.34847e+01
   950    235.358  1.06259e+03 -2.15771e+03 -1.09513e+03  3.29896e+01
   960    264.631  1.19474e+03 -2.13060e+03 -9.35858e+02  4.32176e+01
   970    298.694  1.34853e+03 -2.10051e+03 -7.51975e+02  5.49594e+01
   980    335.678  1.51550e+03 -2.05670e+03 -5.41196e+02  6.93141e+01
   990    375.974  1.69743e+03 -1.99967e+03 -3.02242e+02  8.62890e+01
  1000    421.776  1.90421e+03 -1.93764e+03 -3.34261e+01  1.05163e+02
  1010    474.859  2.14387e+03 -1.87631e+03  2.67560e+02  1.25477e+02
  1020    534.432  2.41283e+03 -1.81057e+03  6.02257e+02  1.47769e+02
  1030    596.269  2.69201e+03 -1.72307e+03  9.68935e+02  1.73564e+02
  1040    656.733  2.96499e+03 -1.60349e+03  1.36149e+03  2.03485e+02
  1050    719.272  3.24734e+03 -1.47511e+03  1.77222e+03  2.34916e+02
  1060    796.194  3.59462e+03 -1.39803e+03  2.19659e+03  2.62130e+02
  1070    880.158  3.97369e+03 -1.34398e+03  2.62971e+03  2.87544e+02
  1080    947.179  4.27628e+03 -1.22326e+03  3.05302e+03  3.18560e+02
  1090   1006.760  4.54527e+03 -1.10068e+03  3.44460e+03  3.48427e+02
  1100   1061.271  4.79138e+03 -1.00267e+03  3.78871e+03  3.73837e+02
  1110   1097.549  4.95516e+03 -8.87410e+02  4.06775e+03  3.97679e+02
  1120   1115.109  5.03444e+03 -7.67576e+02  4.26687e+03  4.18126e+02
  1130   1122.482  5.06773e+03 -6.89800e+02  4.37793e+03  4.30356e+02
  1140   1138.232  5.13884e+03 -7.41137e+02  4.39770e+03  4.26462e+02
  1150   1147.945  5.18269e+03 -8.60300e+02  4.32239e+03  4.12282e+02
  1160   1119.146  5.05267e+03 -9.00268e+02  4.15240e+03  4.01629e+02
  1170   1052.340  4.75106e+03 -8.48684e+02  3.90237e+03  3.96191e+02
  1180    982.022  4.43359e+03 -8.39635e+02  3.59395e+03  3.84203e+02
  1190    922.452  4.16464e+03 -9.22343e+02  3.24230e+03  3.61449e+02
  1200    859.921  3.88233e+03 -1.02208e+03  2.86025e+03  3.35342e+02
  1210    788.068  3.55793e+03 -1.09351e+03  2.46442e+03  3.11065e+02
  1220    713.629  3.22186e+03 -1.15066e+03  2.07120e+03  2.88228e+02
  1230    643.172  2.90376e+03 -1.21169e+03  1.69207e+03  2.65599e+02
  1240    580.034  2.61871e+03 -1.28511e+03  1.33360e+03  2.42576e+02
  1250    524.454  2.36778e+03 -1.36928e+03  9.98498e+02  2.19457e+02
  1260    471.135  2.12706e+03 -1.43782e+03  6.89236e+02  1.98810e+02
  1270    419.505  1.89396e+03 -1.48477e+03  4.09194e+02  1.81337e+02
  1280    375.053  1.69327e+03 -1.53447e+03  1.58804e+02  1.64815e+02
  1290    340.167  1.53577e+03 -1.60151e+03 -6.57432e+01  1.47795e+02
  1300    308.566  1.39310e+03 -1.66066e+03 -2.67556e+02  1.32507e+02
  1310    277.556  1.25310e+03 -1.69983e+03 -4.46736e+02  1.20096e+02
  1320    251.076  1.13355e+03 -1.73807e+03 -6.04528e+02  1.08772e+02
  1330    228.634  1.03222e+03 -1.77606e+03 -7.43836e+02  9.82594e+01
  1340    208.540  9.41508e+02 -1.80803e+03 -8.66520e+02  8.89164e+01
  1350    192.035  8.66990e+02 -1.84154e+03 -9.74547e+02  7.99334e+01
  1360    179.480  8.10306e+02 -1.88070e+03 -1.07039e+03  7.08255e+01
  1370    169.956  7.67310e+02 -1.92354e+03 -1.15623e+03  6.17202e+01
  1380    162.243  7.32488e+02 -1.96605e+03 -1.23357e+03  5.29934e+01
  1390    155.384  7.01520e+02 -2.00479e+03 -1.30327e+03  4.49979e+01
  1400    148.755  6.71591e+02 -2.03741e+03 -1.36582e+03  3.79836e+01
  1410    142.022  6.41195e+02 -2.06270e+03 -1.42150e+03  3.20812e+01
  1420    135.213  6.10453e+02 -2.08099e+03 -1.47054e+03  2.72503e+01
  1430    128.668  5.80903e+02 -2.09416e+03 -1.51326e+03  2.32865e+01
  1440    122.795  5.54389e+02 -2.10449e+03 -1.55010e+03  1.99273e+01
  1450    117.862  5.32118e+02 -2.11371e+03 -1.58159e+03  1.69565e+01
  1460    113.973  5.14560e+02 -2.12279e+03 -1.60823e+03  1.42330e+01
  1470    111.125  5.01702e+02 -2.13216e+03 -1.63046e+03  1.16775e+01
  1480    109.283  4.93388e+02 -2.14202e+03 -1.64863e+03  9.24584e+00
  1490    108.447  4.89612e+02 -2.15262e+03 -1.66300e+03  6.90223e+00
  1500    108.619  4.90389e+02 -2.16415e+03 -1.67376e+03  4.63219e+00
  1510    109.687  4.95208e+02 -2.17619e+03 -1.68098e+03  2.49240e+00
  1520    111.372  5.02817e+02 -2.18749e+03 -1.68467e+03  6.27814e-01
  1530    113.312  5.11576e+02 -2.19634e+03 -1.68476e+03 -7.70456e-01
  1540    115.214  5.20164e+02 -2.20131e+03 -1.68115e+03 -1.54297e+00
  1550    116.995  5.28203e+02 -2.20194e+03 -1.67374e+03 -1.62976e+00
  1560    118.776  5.36244e+02 -2.19869e+03 -1.66245e+03 -1.07184e+00
  1570    120.828  5.45508e+02 -2.19267e+03 -1.64717e+03  1.69960e-02
  1580    123.522  5.57673e+02 -2.18541e+03 -1.62773e+03  1.47953e+00
  1590    127.151  5.74056e+02 -2.17794e+03 -1.60389e+03  3.20039e+00
  1600    131.845  5.95246e+02 -2.17050e+03 -1.57526e+03  5.14261e+00
  1610    137.812  6.22189e+02 -2.16356e+03 -1.54137e+03  7.25269e+00
  1620    145.492  6.56861e+02 -2.15845e+03 -1.50158e+03  9.41147e+00
  1630    155.287  7.01083e+02 -2.15611e+03 -1.45503e+03  1.15573e+01
  1640    167.243  7.55060e+02 -2.15570e+03 -1.40064e+03  1.38191e+01
  1650    181.112  8.17676e+02 -2.15499e+03 -1.33731e+03  1.64733e+01
  1660    196.676  8.87942e+02 -2.15190e+03 -1.26395e+03  1.97912e+01
  1670    213.981  9.66071e+02 -2.14557e+03 -1.17950e+03  2.39359e+01
  1680    233.292  1.05325e+03 -2.13609e+03 -1.08283e+03  2.89891e+01
  1690    254.783  1.15028e+03 -2.12303e+03 -9.72751e+02  3.50784e+01
  1700    278.289  1.25641e+03 -2.10454e+03 -8.48131e+02  4.24576e+01
  1710    303.445  1.36998e+03 -2.07810e+03 -7.08121e+02  5.14135e+01
  1720    330.217  1.49085e+03 -2.04302e+03 -5.52166e+02  6.20233e+01
  1730    359.451  1.62283e+03 -2.00259e+03 -3.79759e+02  7.39624e+01
  1740    392.667  1.77279e+03 -1.96288e+03 -1.90086e+02  8.66504e+01
  1750    431.256  1.94701e+03 -1.92902e+03  1.79941e+01  9.96290e+01
  1760    475.101  2.14496e+03 -1.89961e+03  2.45351e+02  1.13085e+02
  1770    521.561  2.35472e+03 -1.86343e+03  4.91289e+02  1.28088e+02
  1780    567.704  2.56304e+03 -1.81033e+03  7.52711e+02  1.45516e+02
  1790    612.056  2.76328e+03 -1.73854e+03  1.02474e+03  1.65362e+02
  1800    653.395  2.94992e+03 -1.64845e+03  1.30147e+03  1.87289e+02
  1810    691.549  3.12217e+03 -1.54584e+03  1.57633e+03  2.10361e+02
  1820    729.319  3.29269e+03 -1.44947e+03  1.84323e+03  2.32441e+02
  1830    770.663  3.47935e+03 -1.38235e+03  2.09700e+03  2.51066e+02
  1840    817.015  3.68862e+03 -1.35622e+03  2.33239e+03  2.64932e+02
  1850    863.257  3.89739e+03 -1.35519e+03  2.54220e+03  2.75374e+02
  1860    894.831  4.03994e+03 -1.32372e+03  2.71622e+03  2.87180e+02
  1870    910.097  4.10886e+03 -1.26432e+03  2.84454e+03  2.99754e+02
  1880    917.098  4.14047e+03 -1.21861e+03  2.92186e+03  3.08990e+02
  1890    912.679  4.12052e+03 -1.17448e+03  2.94604e+03  3.15715e+02
  1900    893.132  4.03227e+03 -1.11435e+03  2.91792e+03  3.21360e+02
  1910    873.648  3.94431e+03 -1.10296e+03  2.84135e+03  3.20089e+02
  1920    863.109  3.89672e+03 -1.17735e+03  2.71938e+03  3.08768e+02
  1930    840.022  3.79249e+03 -1.23738e+03  2.55511e+03  2.96902e+02
  1940    793.640  3.58309e+03 -1.22581e+03  2.35728e+03  2.90368e+02
  1950    734.540  3.31627e+03 -1.17748e+03  2.13878e+03  2.86423e+02
  1960    682.767  3.08253e+03 -1.17280e+03  1.90972e+03  2.77849e+02
  1970    641.613  2.89673e+03 -1.22255e+03  1.67417e+03  2.63610e+02
  1980    601.295  2.71470e+03 -1.27854e+03  1.43616e+03  2.48206e+02
  1990    564.473  2.54845e+03 -1.34871e+03  1.19974e+03  2.31235e+02
  2000    529.543  2.39076e+03 -1.42316e+03  9.67594e+02  2.13829e+02
  2010    493.743  2.22913e+03 -1.48622e+03  7.42913e+02  1.97734e+02
  2020    454.942  2.05395e+03 -1.52439e+03  5.29562e+02  1.84492e+02
  2030    414.151  1.86979e+03 -1.53823e+03  3.31556e+02  1.74259e+02
  2040    374.567  1.69108e+03 -1.53978e+03  1.51298e+02  1.65965e+02
  2050    337.823  1.52519e+03 -1.53558e+03 -1.03955e+01  1.58873e+02
  2060    308.093  1.39096e+03 -1.54549e+03 -1.54532e+02  1.50960e+02
  2070    289.192  1.30563e+03 -1.59032e+03 -2.84693e+02  1.40101e+02
  2080    278.543  1.25755e+03 -1.66264e+03 -4.05082e+02  1.26856e+02
  2090    269.814  1.21814e+03 -1.73592e+03 -5.17774e+02  1.13710e+02
  2100    259.794  1.17291e+03 -1.79564e+03 -6.22736e+02  1.02159e+02
  2110    248.376  1.12136e+03 -1.84076e+03 -7.19404e+02  9.24229e+01
  2120    236.020  1.06557e+03 -1.87295e+03 -8.07380e+02  8.43833e+01
  2130    223.508  1.00908e+03 -1.89563e+03 -8.86545e+02  7.77000e+01
  2140    212.246  9.58240e+02 -1.91547e+03 -9.57230e+02  7.16973e+01
  2150    203.046  9.16704e+02 -1.93690e+03 -1.02019e+03  6.58968e+01
  2160    195.412  8.82238e+02 -1.95842e+03 -1.07619e+03  6.03764e+01
  2170    189.170  8.54054e+02 -1.97983e+03 -1.12577e+03  5.51235e+01
  2180    184.853  8.34565e+02 -2.00410e+03 -1.16953e+03  4.98436e+01
  2190    182.774  8.25178e+02 -2.03326e+03 -1.20808e+03  4.43485e+01
  2200    182.319  8.23127e+02 -2.06503e+03 -1.24190e+03  3.88789e+01
  2210    181.828  8.20907e+02 -2.09209e+03 -1.27118e+03  3.41629e+01
  2220    179.973  8.12533e+02 -2.10834e+03 -1.29581e+03  3.08112e+01
  2230    176.889  7.98611e+02 -2.11427e+03 -1.31565e+03  2.87969e+01
  2240    173.631  7.83899e+02 -2.11461e+03 -1.33071e+03  2.76555e+01
  2250    171.209  7.72968e+02 -2.11409e+03 -1.34112e+03  2.69068e+01
  2260    170.057  7.67765e+02 -2.11477e+03 -1.34700e+03  2.63149e+01
  2270    170.105  7.67981e+02 -2.11643e+03 -1.34845e+03  2.58754e+01
  2280    171.137  7.72644e+02 -2.11811e+03 -1.34547e+03  2.56688e+01
  2290    172.991  7.81014e+02 -2.11902e+03 -1.33801e+03  2.57696e+01
  2300    175.583  7.92716e+02 -2.11870e+03 -1.32598e+03  2.62272e+01
  2310    178.914  8.07753e+02 -2.11701e+03 -1.30926e+03  2.70620e+01
  2320    183.044  8.26397e+02 -2.11405e+03 -1.28766e+03  2.82768e+01
  2330    188.042  8.48964e+02 -2.10993e+03 -1.26096e+03  2.98792e+01
  2340    193.964  8.75699e+02 -2.10461e+03 -1.22891e+03  3.18932e+01
  2350    200.852  9.06799e+02 -2.09799e+03 -1.19119e+03  3.43539e+01
  2360    208.724  9.42336e+02 -2.08978e+03 -1.14744e+03  3.73116e+01
  2370    217.471  9.81828e+02 -2.07914e+03 -1.09731e+03  4.08635e+01
  2380    226.891  1.02436e+03 -2.06482e+03 -1.04046e+03  4.51303e+01
  2390    236.948  1.06976e+03 -2.04634e+03 -9.76577e+02  5.01402e+01
  2400    247.975  1.11955e+03 -2.02488e+03 -9.05332e+02  5.57536e+01
  2410    260.633  1.17669e+03 -2.00295e+03 -8.26258e+02  6.17032e+01
  2420    275.771  1.24504e+03 -1.98370e+03 -7.38662e+02  6.76801e+01
  2430    294.193  1.32821e+03 -1.96982e+03 -6.41605e+02  7.34568e+01
  2440    316.054  1.42691e+03 -1.96094e+03 -5.34032e+02  7.91336e+01
  2450    340.573  1.53760e+03 -1.95274e+03 -4.15135e+02  8.52058e+01
  2460    366.649  1.65533e+03 -1.93999e+03 -2.84664e+02  9.22475e+01
  2470    393.518  1.77664e+03 -1.91961e+03 -1.42972e+02  1.00601e+02
  2480    421.302  1.90207e+03 -1.89288e+03  9.19631e+00  1.10168e+02
  2490    450.430  2.03358e+03 -1.86263e+03  1.70948e+02  1.20692e+02
  2500    479.663  2.16556e+03 -1.82460e+03  3.40963e+02  1.32546e+02
  2510    506.442  2.28646e+03 -1.76958e+03  5.16879e+02  1.46482e+02
  2520    530.030  2.39295e+03 -1.69739e+03  6.95564e+02  1.62335e+02
  2530    552.933  2.49636e+03 -1.62213e+03  8.74230e+02  1.78555e+02
  2540    579.897  2.61809e+03 -1.56688e+03  1.05121e+03  1.92788e+02
  2550    612.356  2.76464e+03 -1.53923e+03  1.22540e+03  2.04177e+02
  2560    645.534  2.91443e+03 -1.52015e+03  1.39428e+03  2.14351e+02
  2570    674.108  3.04343e+03 -1.49013e+03  1.55330e+03  2.25000e+02
  2580    695.005  3.13777e+03 -1.44056e+03  1.69721e+03  2.36757e+02
  2590    708.597  3.19914e+03 -1.37772e+03  1.82142e+03  2.48810e+02
  2600    718.929  3.24579e+03 -1.32291e+03  1.92287e+03  2.58973e+02
  2610    727.445  3.28424e+03 -1.28456e+03  1.99967e+03  2.66226e+02
  2620    738.114  3.33240e+03 -1.28206e+03  2.05035e+03  2.68742e+02
  2630    742.802  3.35357e+03 -1.28009e+03  2.07348e+03  2.69684e+02
  2640    744.928  3.36317e+03 -1.29521e+03  2.06796e+03  2.67687e+02
  2650    746.984  3.37245e+03 -1.33912e+03  2.03333e+03  2.61851e+02
  2660    738.987  3.33634e+03 -1.36650e+03  1.96984e+03  2.56410e+02
  2670    720.753  3.25402e+03 -1.37427e+03  1.87975e+03  2.51819e+02
  2680    700.948  3.16461e+03 -1.39831e+03  1.76630e+03  2.45000e+02
  2690    674.961  3.04728e+03 -1.41425e+03  1.63303e+03  2.38276e+02
  2700    637.436  2.87787e+03 -1.39212e+03  1.48575e+03  2.34507e+02
  2710    598.495  2.70206e+03 -1.37128e+03  1.33078e+03  2.30216e+02
  2720    566.424  2.55727e+03 -1.38568e+03  1.17158e+03  2.22314e+02
  2730    536.137  2.42052e+03 -1.41010e+03  1.01043e+03  2.13124e+02
  2740    504.721  2.27869e+03 -1.42834e+03  8.50354e+02  2.04286e+02
  2750    474.914  2.14412e+03 -1.45011e+03  6.94011e+02  1.95056e+02
  2760    449.456  2.02918e+03 -1.48658e+03  5.42598e+02  1.84469e+02
  2770    427.800  1.93141e+03 -1.53501e+03  3.96402e+02  1.72839e+02
  2780    407.408  1.83935e+03 -1.58352e+03  2.55824e+02  1.61390e+02
  2790    385.149  1.73885e+03 -1.61681e+03  1.22044e+02  1.51682e+02
  2800    360.325  1.62678e+03 -1.62987e+03 -3.09217e+00  1.44268e+02
  2810    336.601  1.51967e+03 -1.63803e+03 -1.18362e+02  1.37730e+02
  2820    318.567  1.43825e+03 -1.66258e+03 -2.24329e+02  1.30025e+02
  2830    305.628  1.37983e+03 -1.70235e+03 -3.22512e+02  1.21165e+02
