Step    T(K)    KE(kJ)    PE(kJ)    TotE(kJ)    P(MPa)
     0      0.300  1.35750e+00 -1.63102e+03 -1.62966e+03  1.97263e+02
    10      0.600  2.71613e+00 -1.63237e+03 -1.62965e+03  1.96996e+02
    20      1.433  6.48888e+00 -1.63606e+03 -1.62957e+03  1.96255e+02
    30      2.764  1.25112e+01 -1.64184e+03 -1.62933e+03  1.95080e+02
    40      4.545  2.05758e+01 -1.64930e+03 -1.62873e+03  1.93525e+02
    50      6.736  3.04935e+01 -1.65805e+03 -1.62755e+03  1.91654e+02
    60      9.310  4.21497e+01 -1.66768e+03 -1.62553e+03  1.89531e+02
    70     12.269  5.55439e+01 -1.67781e+03 -1.62227e+03  1.87216e+02
    80     15.641  7.08112e+01 -1.68804e+03 -1.61723e+03  1.84771e+02
    90     19.490  8.82356e+01 -1.69782e+03 -1.60958e+03  1.82263e+02
   100     23.906  1.08226e+02 -1.70723e+03 -1.59900e+03  1.79720e+02
   110     29.017  1.31368e+02 -1.71305e+03 -1.58168e+03  1.77370e+02
   120     34.984  1.58380e+02 -1.72088e+03 -1.56250e+03  1.74908e+02
   130     41.986  1.90079e+02 -1.73093e+03 -1.54085e+03  1.72358e+02
   140     50.253  2.27507e+02 -1.74013e+03 -1.51263e+03  1.69953e+02
   150     60.074  2.71967e+02 -1.74790e+03 -1.47593e+03  1.67787e+02
   160     71.795  3.25034e+02 -1.75550e+03 -1.43047e+03  1.65853e+02
   170     85.837  3.88605e+02 -1.76129e+03 -1.37268e+03  1.64340e+02
   180    102.711  4.64994e+02 -1.76511e+03 -1.30012e+03  1.63367e+02
   190    123.025  5.56962e+02 -1.76852e+03 -1.21155e+03  1.62974e+02
   200    147.507  6.67799e+02 -1.76988e+03 -1.10208e+03  1.63423e+02
   210    177.018  8.01400e+02 -1.76970e+03 -9.68300e+02  1.64876e+02
   220    212.557  9.62294e+02 -1.76635e+03 -8.04055e+02  1.67659e+02
   230    255.246  1.15555e+03 -1.75986e+03 -6.04309e+02  1.72024e+02
   240    306.251  1.38647e+03 -1.74996e+03 -3.63492e+02  1.78267e+02
   250    366.638  1.65985e+03 -1.73598e+03 -7.61271e+01  1.86714e+02
   260    437.087  1.97879e+03 -1.71693e+03  2.61864e+02  1.97692e+02
   270    517.496  2.34282e+03 -1.69024e+03  6.52582e+02  2.11544e+02
   280    606.773  2.74700e+03 -1.65239e+03  1.09461e+03  2.28476e+02
   290    703.433  3.18460e+03 -1.60532e+03  1.57929e+03  2.47948e+02
   300    805.867  3.64834e+03 -1.55910e+03  2.08924e+03  2.68410e+02
   310    910.176  4.12057e+03 -1.51841e+03  2.60217e+03  2.88375e+02
   320   1010.846  4.57633e+03 -1.48920e+03  3.08712e+03  3.05914e+02
   330   1102.653  4.99196e+03 -1.48423e+03  3.50772e+03  3.18304e+02
   340   1176.481  5.32620e+03 -1.50216e+03  3.82404e+03  3.24135e+02
   350   1220.693  5.52635e+03 -1.52724e+03  3.99911e+03  3.23540e+02
   360   1227.702  5.55809e+03 -1.55030e+03  4.00779e+03  3.16673e+02
   370   1196.268  5.41577e+03 -1.56848e+03  3.84729e+03  3.03907e+02
   380   1130.024  5.11587e+03 -1.57962e+03  3.53625e+03  2.86476e+02
   390   1032.822  4.67582e+03 -1.56409e+03  3.11173e+03  2.67860e+02
   400    903.898  4.09215e+03 -1.46744e+03  2.62471e+03  2.54820e+02
   410    781.956  3.54009e+03 -1.41246e+03  2.12763e+03  2.37934e+02
   420    704.286  3.18846e+03 -1.55732e+03  1.63114e+03  2.03672e+02
   430    599.084  2.71219e+03 -1.55692e+03  1.15527e+03  1.83839e+02
   440    486.598  2.20294e+03 -1.46561e+03  7.37327e+02  1.75005e+02
   450    419.536  1.89933e+03 -1.52284e+03  3.76494e+02  1.55188e+02
   460    364.952  1.65222e+03 -1.59809e+03  5.41248e+01  1.35057e+02
   470    310.864  1.40735e+03 -1.63331e+03 -2.25959e+02  1.20237e+02
   480    265.654  1.20268e+03 -1.66841e+03 -4.65729e+02  1.07234e+02
   490    226.843  1.02697e+03 -1.69646e+03 -6.69486e+02  9.64555e+01
   500    192.434  8.71193e+02 -1.71162e+03 -8.40432e+02  8.82442e+01
   510    162.631  7.36269e+02 -1.71858e+03 -9.82313e+02  8.19425e+01
   520    140.228  6.34845e+02 -1.73484e+03 -1.09999e+03  7.56317e+01
   530    124.900  5.65448e+02 -1.76510e+03 -1.19966e+03  6.85353e+01
   540    113.601  5.14297e+02 -1.80044e+03 -1.28614e+03  6.12833e+01
   550    104.652  4.73783e+02 -1.83630e+03 -1.36252e+03  5.42590e+01
   560     97.140  4.39777e+02 -1.86987e+03 -1.43009e+03  4.77128e+01
   570     90.516  4.09788e+02 -1.90017e+03 -1.49039e+03  4.17607e+01
   580     84.603  3.83016e+02 -1.92646e+03 -1.54345e+03  3.64587e+01
   590     79.363  3.59292e+02 -1.94986e+03 -1.59057e+03  3.17178e+01
   600     74.791  3.38595e+02 -1.97090e+03 -1.63231e+03  2.74714e+01
   610     70.866  3.20825e+02 -1.99019e+03 -1.66937e+03  2.36462e+01
   620     67.478  3.05487e+02 -2.00761e+03 -1.70213e+03  2.02260e+01
   630     64.483  2.91928e+02 -2.02279e+03 -1.73086e+03  1.72174e+01
   640     61.808  2.79820e+02 -2.03624e+03 -1.75642e+03  1.45634e+01
   650     59.488  2.69316e+02 -2.04782e+03 -1.77850e+03  1.22337e+01
   660     57.609  2.60811e+02 -2.05851e+03 -1.79770e+03  1.01177e+01
   670     56.228  2.54558e+02 -2.06885e+03 -1.81429e+03  8.14229e+00
   680     55.325  2.50468e+02 -2.07899e+03 -1.82852e+03  6.27502e+00
   690     54.827  2.48215e+02 -2.08869e+03 -1.84047e+03  4.52345e+00
   700     54.653  2.47426e+02 -2.09787e+03 -1.85045e+03  2.89455e+00
   710     54.746  2.47846e+02 -2.10621e+03 -1.85837e+03  1.41186e+00
   720     55.091  2.49410e+02 -2.11371e+03 -1.86430e+03  7.60950e-02
   730     55.698  2.52159e+02 -2.12030e+03 -1.86814e+03 -1.10884e+00
   740     56.579  2.56144e+02 -2.12612e+03 -1.86998e+03 -2.15228e+00
   750     57.749  2.61441e+02 -2.13145e+03 -1.87001e+03 -3.07057e+00
   760     59.249  2.68233e+02 -2.13588e+03 -1.86764e+03 -3.84063e+00
   770     61.155  2.76863e+02 -2.14018e+03 -1.86332e+03 -4.51615e+00
   780     63.565  2.87774e+02 -2.14428e+03 -1.85650e+03 -5.09662e+00
   790     66.578  3.01412e+02 -2.14823e+03 -1.84682e+03 -5.58699e+00
   800     70.284  3.18191e+02 -2.15247e+03 -1.83428e+03 -6.00346e+00
   810     74.767  3.38486e+02 -2.15707e+03 -1.81859e+03 -6.33284e+00
   820     80.107  3.62662e+02 -2.16145e+03 -1.79878e+03 -6.50779e+00
   830     86.376  3.91046e+02 -2.16613e+03 -1.77508e+03 -6.51919e+00
   840     93.609  4.23787e+02 -2.17030e+03 -1.74652e+03 -6.25970e+00
   850    101.799  4.60865e+02 -2.17331e+03 -1.71245e+03 -5.61761e+00
   860    110.942  5.02258e+02 -2.17466e+03 -1.67240e+03 -4.48691e+00
   870    121.073  5.48126e+02 -2.17332e+03 -1.62519e+03 -2.73160e+00
   880    132.302  5.98962e+02 -2.16927e+03 -1.57030e+03 -2.86404e-01
   890    144.871  6.55865e+02 -2.16265e+03 -1.50679e+03  2.88905e+00
   900    159.172  7.20608e+02 -2.15388e+03 -1.43327e+03  6.81077e+00
   910    175.525  7.94639e+02 -2.14406e+03 -1.34942e+03  1.14772e+01
   920    193.894  8.77802e+02 -2.13098e+03 -1.25318e+03  1.71485e+01
   930    213.923  9.68480e+02 -2.11205e+03 -1.14357e+03  2.41377e+01
   940    235.304  1.06527e+03 -2.08517e+03 -1.01990e+03  3.26851e+01
   950    258.255  1.16918e+03 -2.05072e+03 -8.81535e+02  4.27700e+01
   960    283.631  1.28406e+03 -2.01219e+03 -7.28126e+02  5.40778e+01
   970    312.139  1.41312e+03 -1.97149e+03 -5.58368e+02  6.64191e+01
   980    343.792  1.55642e+03 -1.92844e+03 -3.72020e+02  7.98153e+01
   990    378.046  1.71150e+03 -1.88088e+03 -1.69382e+02  9.44391e+01
  1000    413.432  1.87170e+03 -1.82402e+03  4.76794e+01  1.10662e+02
  1010    448.242  2.02929e+03 -1.75186e+03  2.77431e+02  1.28807e+02
  1020    484.900  2.19525e+03 -1.68043e+03  5.14817e+02  1.47237e+02
  1030    525.280  2.37806e+03 -1.61968e+03  7.58378e+02  1.64808e+02
  1040    567.633  2.56980e+03 -1.56676e+03  1.00305e+03  1.81580e+02
  1050    610.292  2.76293e+03 -1.51926e+03  1.24367e+03  1.97536e+02
  1060    648.189  2.93450e+03 -1.46388e+03  1.47061e+03  2.13633e+02
  1070    679.055  3.07423e+03 -1.39890e+03  1.67533e+03  2.29661e+02
  1080    702.004  3.17813e+03 -1.32877e+03  1.84936e+03  2.44889e+02
  1090    710.761  3.21777e+03 -1.23279e+03  1.98499e+03  2.60816e+02
  1100    708.500  3.20754e+03 -1.13076e+03  2.07678e+03  2.75230e+02
  1110    715.135  3.23758e+03 -1.11261e+03  2.12497e+03  2.79775e+02
  1120    724.316  3.27914e+03 -1.15049e+03  2.12865e+03  2.76869e+02
  1130    723.790  3.27676e+03 -1.19077e+03  2.08599e+03  2.71530e+02
  1140    709.421  3.21171e+03 -1.21415e+03  1.99756e+03  2.65851e+02
  1150    680.663  3.08151e+03 -1.21168e+03  1.86983e+03  2.60945e+02
  1160    641.111  2.90245e+03 -1.19187e+03  1.71059e+03  2.56364e+02
  1170    598.181  2.70810e+03 -1.17870e+03  1.52941e+03  2.50166e+02
  1180    559.147  2.53138e+03 -1.19719e+03  1.33420e+03  2.40267e+02
  1190    524.621  2.37508e+03 -1.24472e+03  1.13036e+03  2.27104e+02
  1200    488.455  2.21134e+03 -1.28903e+03  9.22316e+02  2.13898e+02
  1210    449.460  2.03481e+03 -1.31838e+03  7.16433e+02  2.02003e+02
  1220    413.190  1.87060e+03 -1.35350e+03  5.17106e+02  1.89726e+02
  1230    381.479  1.72704e+03 -1.40004e+03  3.26999e+02  1.76604e+02
  1240    352.576  1.59619e+03 -1.44913e+03  1.47061e+02  1.63554e+02
  1250    325.221  1.47235e+03 -1.49432e+03 -2.19743e+01  1.51322e+02
  1260    298.248  1.35023e+03 -1.52895e+03 -1.78713e+02  1.40613e+02
  1270    271.800  1.23050e+03 -1.55216e+03 -3.21664e+02  1.31516e+02
  1280    248.604  1.12548e+03 -1.57674e+03 -4.51255e+02  1.22823e+02
  1290    230.985  1.04572e+03 -1.61486e+03 -5.69138e+02  1.13305e+02
  1300    217.422  9.84317e+02 -1.66136e+03 -6.77046e+02  1.03325e+02
  1310    205.406  9.29920e+02 -1.70571e+03 -7.75786e+02  9.38234e+01
  1320    194.247  8.79400e+02 -1.74571e+03 -8.66312e+02  8.50540e+01
  1330    183.901  8.32563e+02 -1.78160e+03 -9.49041e+02  7.70262e+01
  1340    174.290  7.89052e+02 -1.81318e+03 -1.02413e+03  6.97658e+01
  1350    165.296  7.48331e+02 -1.84051e+03 -1.09218e+03  6.32754e+01
  1360    156.836  7.10032e+02 -1.86327e+03 -1.15324e+03  5.75671e+01
  1370    148.973  6.74435e+02 -1.88238e+03 -1.20794e+03  5.25459e+01
  1380    141.868  6.42267e+02 -1.89912e+03 -1.25685e+03  4.80680e+01
  1390    135.707  6.14375e+02 -1.91445e+03 -1.30007e+03  4.39986e+01
  1400    130.619  5.91340e+02 -1.92963e+03 -1.33829e+03  4.01931e+01
  1410    126.589  5.73097e+02 -1.94501e+03 -1.37191e+03  3.65901e+01
  1420    123.552  5.59348e+02 -1.96058e+03 -1.40123e+03  3.31683e+01
  1430    121.398  5.49595e+02 -1.97657e+03 -1.42698e+03  2.99102e+01
  1440    119.873  5.42694e+02 -1.99181e+03 -1.44911e+03  2.69129e+01
  1450    118.708  5.37417e+02 -2.00491e+03 -1.46749e+03  2.42948e+01
  1460    117.777  5.33202e+02 -2.01564e+03 -1.48244e+03  2.20877e+01
  1470    117.083  5.30061e+02 -2.02400e+03 -1.49394e+03  2.02847e+01
  1480    116.690  5.28281e+02 -2.03080e+03 -1.50252e+03  1.88185e+01
  1490    116.712  5.28382e+02 -2.03625e+03 -1.50787e+03  1.76476e+01
  1500    117.311  5.31092e+02 -2.04088e+03 -1.50979e+03  1.67056e+01
  1510    118.642  5.37121e+02 -2.04556e+03 -1.50844e+03  1.59119e+01
  1520    120.776  5.46782e+02 -2.05082e+03 -1.50404e+03  1.52236e+01
  1530    123.668  5.59873e+02 -2.05614e+03 -1.49626e+03  1.46908e+01
  1540    127.209  5.75904e+02 -2.06099e+03 -1.48509e+03  1.43750e+01
  1550    131.324  5.94535e+02 -2.06451e+03 -1.46997e+03  1.43603e+01
  1560    136.026  6.15819e+02 -2.06652e+03 -1.45070e+03  1.46726e+01
  1570    141.395  6.40128e+02 -2.06783e+03 -1.42770e+03  1.52717e+01
  1580    147.528  6.67893e+02 -2.06770e+03 -1.39981e+03  1.62089e+01
  1590    154.496  6.99439e+02 -2.06669e+03 -1.36726e+03  1.74667e+01
  1600    162.313  7.34826e+02 -2.06458e+03 -1.32975e+03  1.90874e+01
  1610    170.937  7.73868e+02 -2.06072e+03 -1.28685e+03  2.11490e+01
  1620    180.366  8.16558e+02 -2.05501e+03 -1.23845e+03  2.36898e+01
  1630    190.854  8.64041e+02 -2.04781e+03 -1.18377e+03  2.66873e+01
  1640    202.842  9.18313e+02 -2.04068e+03 -1.12236e+03  3.00287e+01
  1650    216.431  9.79834e+02 -2.03328e+03 -1.05344e+03  3.37779e+01
  1660    231.156  1.04650e+03 -2.02389e+03 -9.77396e+02  3.81622e+01
  1670    246.363  1.11534e+03 -2.00904e+03 -8.93702e+02  4.35217e+01
  1680    261.611  1.18437e+03 -1.98708e+03 -8.02709e+02  5.00253e+01
  1690    276.819  1.25322e+03 -1.95840e+03 -7.05178e+02  5.76338e+01
  1700    292.098  1.32240e+03 -1.92263e+03 -6.00237e+02  6.63047e+01
  1710    307.397  1.39166e+03 -1.88141e+03 -4.89749e+02  7.58700e+01
  1720    322.660  1.46076e+03 -1.83483e+03 -3.74071e+02  8.62294e+01
  1730    338.295  1.53154e+03 -1.78521e+03 -2.53675e+02  9.70703e+01
  1740    355.094  1.60759e+03 -1.73647e+03 -1.28876e+02  1.07931e+02
  1750    375.399  1.69952e+03 -1.70073e+03 -1.21767e+00  1.17687e+02
  1760    401.575  1.81802e+03 -1.68764e+03  1.30383e+02  1.25506e+02
  1770    426.482  1.93078e+03 -1.66638e+03  2.64396e+02  1.34242e+02
  1780    444.083  2.01046e+03 -1.61349e+03  3.96978e+02  1.45920e+02
  1790    457.502  2.07121e+03 -1.54660e+03  5.24609e+02  1.58682e+02
  1800    472.177  2.13765e+03 -1.49280e+03  6.44855e+02  1.69811e+02
  1810    490.571  2.22092e+03 -1.46410e+03  7.56821e+02  1.78046e+02
  1820    509.966  2.30873e+03 -1.44956e+03  8.59169e+02  1.84327e+02
  1830    526.800  2.38494e+03 -1.43639e+03  9.48553e+02  1.89848e+02
  1840    539.420  2.44207e+03 -1.41934e+03  1.02274e+03  1.95070e+02
  1850    545.723  2.47061e+03 -1.39207e+03  1.07854e+03  2.00514e+02
  1860    546.981  2.47631e+03 -1.36180e+03  1.11451e+03  2.05404e+02
  1870    547.011  2.47644e+03 -1.34620e+03  1.13024e+03  2.08044e+02
  1880    542.787  2.45732e+03 -1.33142e+03  1.12590e+03  2.09626e+02
  1890    533.591  2.41569e+03 -1.31430e+03  1.10138e+03  2.10499e+02
  1900    523.018  2.36782e+03 -1.30890e+03  1.05892e+03  2.09445e+02
  1910    513.407  2.32431e+03 -1.32420e+03  1.00011e+03  2.05716e+02
  1920    502.159  2.27339e+03 -1.34754e+03  9.25853e+02  2.00545e+02
  1930    485.180  2.19652e+03 -1.35792e+03  8.38601e+02  1.95896e+02
  1940    464.293  2.10196e+03 -1.36025e+03  7.41707e+02  1.91388e+02
  1950    442.479  2.00320e+03 -1.36505e+03  6.38146e+02  1.86105e+02
  1960    422.474  1.91264e+03 -1.38290e+03  5.29738e+02  1.79161e+02
  1970    408.009  1.84715e+03 -1.42911e+03  4.18033e+02  1.69285e+02
  1980    395.242  1.78935e+03 -1.48609e+03  3.03258e+02  1.58260e+02
  1990    378.471  1.71343e+03 -1.52644e+03  1.86983e+02  1.48804e+02
  2000    357.651  1.61917e+03 -1.54757e+03  7.15950e+01  1.41321e+02
  2010    335.761  1.52007e+03 -1.55902e+03 -3.89506e+01  1.34909e+02
  2020    316.392  1.43238e+03 -1.57728e+03 -1.44902e+02  1.28025e+02
  2030    302.867  1.37115e+03 -1.61786e+03 -2.46710e+02  1.19212e+02
  2040    291.953  1.32174e+03 -1.66631e+03 -3.44577e+02  1.09786e+02
  2050    278.798  1.26218e+03 -1.70028e+03 -4.38095e+02  1.01922e+02
  2060    262.985  1.19059e+03 -1.71673e+03 -5.26137e+02  9.60379e+01
  2070    246.102  1.11416e+03 -1.72131e+03 -6.07154e+02  9.16342e+01
  2080    230.292  1.04258e+03 -1.72378e+03 -6.81193e+02  8.77750e+01
  2090    217.379  9.84124e+02 -1.73252e+03 -7.48391e+02  8.35890e+01
  2100    208.106  9.42141e+02 -1.75142e+03 -8.09278e+02  7.86283e+01
  2110    201.739  9.13318e+02 -1.77859e+03 -8.65271e+02  7.30459e+01
  2120    196.734  8.90660e+02 -1.80730e+03 -9.16643e+02  6.74640e+01
  2130    192.037  8.69395e+02 -1.83311e+03 -9.63714e+02  6.23412e+01
  2140    187.477  8.48749e+02 -1.85535e+03 -1.00660e+03  5.77846e+01
  2150    183.135  8.29091e+02 -1.87456e+03 -1.04546e+03  5.37729e+01
  2160    178.926  8.10040e+02 -1.89044e+03 -1.08040e+03  5.03369e+01
  2170    174.765  7.91201e+02 -1.90271e+03 -1.11151e+03  4.74920e+01
  2180    170.774  7.73132e+02 -1.91115e+03 -1.13801e+03  4.52094e+01
  2190    167.219  7.57039e+02 -1.91773e+03 -1.16069e+03  4.32971e+01
  2200    164.340  7.44005e+02 -1.92370e+03 -1.17969e+03  4.16139e+01
  2210    162.281  7.34684e+02 -1.92976e+03 -1.19507e+03  4.00720e+01
  2220    161.082  7.29256e+02 -1.93648e+03 -1.20722e+03  3.86198e+01
  2230    160.663  7.27358e+02 -1.94277e+03 -1.21541e+03  3.73334e+01
  2240    160.888  7.28378e+02 -1.94898e+03 -1.22061e+03  3.62139e+01
  2250    161.705  7.32074e+02 -1.95432e+03 -1.22225e+03  3.53264e+01
  2260    163.121  7.38487e+02 -1.95867e+03 -1.22019e+03  3.46848e+01
  2270    165.098  7.47437e+02 -1.96265e+03 -1.21521e+03  3.42669e+01
  2280    167.544  7.58509e+02 -1.96521e+03 -1.20670e+03  3.41630e+01
  2290    170.383  7.71361e+02 -1.96613e+03 -1.19477e+03  3.44079e+01
  2300    173.607  7.85959e+02 -1.96500e+03 -1.17905e+03  3.50374e+01
  2310    177.238  8.02395e+02 -1.96214e+03 -1.15974e+03  3.60373e+01
  2320    181.295  8.20764e+02 -1.95721e+03 -1.13644e+03  3.74289e+01
  2330    185.810  8.41205e+02 -1.95077e+03 -1.10956e+03  3.91763e+01
  2340    190.814  8.63857e+02 -1.94261e+03 -1.07875e+03  4.12861e+01
  2350    196.343  8.88888e+02 -1.93275e+03 -1.04387e+03  4.37455e+01
  2360    202.571  9.17085e+02 -1.92176e+03 -1.00468e+03  4.64825e+01
  2370    209.981  9.50630e+02 -1.91213e+03 -9.61500e+02  4.92687e+01
  2380    219.202  9.92377e+02 -1.90562e+03 -9.13243e+02  5.19183e+01
  2390    230.550  1.04375e+03 -1.90383e+03 -8.60077e+02  5.43278e+01
  2400    243.742  1.10348e+03 -1.90516e+03 -8.01689e+02  5.66979e+01
  2410    257.890  1.16752e+03 -1.90487e+03 -7.37343e+02  5.95132e+01
  2420    271.770  1.23036e+03 -1.89826e+03 -6.67896e+02  6.32727e+01
  2430    284.355  1.28734e+03 -1.88142e+03 -5.94086e+02  6.83470e+01
  2440    295.378  1.33724e+03 -1.85362e+03 -5.16375e+02  7.47377e+01
  2450    306.081  1.38570e+03 -1.82120e+03 -4.35504e+02  8.17597e+01
  2460    319.021  1.44428e+03 -1.79577e+03 -3.51492e+02  8.82410e+01
  2470    335.813  1.52030e+03 -1.78459e+03 -2.64286e+02  9.34714e+01
  2480    355.177  1.60796e+03 -1.78272e+03 -1.74755e+02  9.79351e+01
  2490    374.063  1.69347e+03 -1.77641e+03 -8.29379e+01  1.02893e+02
  2500    390.586  1.76827e+03 -1.75877e+03  9.49381e+00  1.08963e+02
  2510    405.911  1.83765e+03 -1.73750e+03  1.00153e+02  1.15408e+02
  2520    421.626  1.90879e+03 -1.72113e+03  1.87663e+02  1.21378e+02
  2530    436.801  1.97750e+03 -1.70711e+03  2.70385e+02  1.27040e+02
  2540    449.165  2.03347e+03 -1.68658e+03  3.46892e+02  1.33126e+02
  2550    456.763  2.06787e+03 -1.65300e+03  4.14871e+02  1.40150e+02
  2560    460.479  2.08469e+03 -1.61184e+03  4.72847e+02  1.47483e+02
  2570    463.087  2.09650e+03 -1.57621e+03  5.20294e+02  1.53809e+02
  2580    464.819  2.10434e+03 -1.54777e+03  5.56572e+02  1.58882e+02
  2590    464.567  2.10320e+03 -1.52194e+03  5.81257e+02  1.63009e+02
  2600    465.362  2.10680e+03 -1.51220e+03  5.94604e+02  1.64877e+02
  2610    468.949  2.12304e+03 -1.52693e+03  5.96111e+02  1.63723e+02
  2620    470.737  2.13113e+03 -1.54545e+03  5.85683e+02  1.61482e+02
  2630    468.122  2.11930e+03 -1.55628e+03  5.63013e+02  1.59340e+02
  2640    463.061  2.09638e+03 -1.56736e+03  5.29026e+02  1.56715e+02
  2650    455.451  2.06193e+03 -1.57828e+03  4.83649e+02  1.53778e+02
  2660    443.377  2.00727e+03 -1.57821e+03  4.29057e+02  1.51585e+02
  2670    427.316  1.93456e+03 -1.56734e+03  3.67215e+02  1.50182e+02
  2680    408.114  1.84762e+03 -1.54736e+03  3.00268e+02  1.49410e+02
  2690    388.461  1.75865e+03 -1.52937e+03  2.29275e+02  1.48237e+02
  2700    373.372  1.69034e+03 -1.53393e+03  1.56411e+02  1.44728e+02
  2710    361.784  1.63788e+03 -1.55587e+03  8.20097e+01  1.39330e+02
  2720    349.220  1.58100e+03 -1.57414e+03  6.85561e+00  1.33996e+02
  2730    335.995  1.52112e+03 -1.58944e+03 -6.83132e+01  1.28763e+02
  2740    324.290  1.46813e+03 -1.61041e+03 -1.42278e+02  1.22905e+02
  2750    314.423  1.42346e+03 -1.63861e+03 -2.15147e+02  1.16372e+02
  2760    305.222  1.38181e+03 -1.66820e+03 -2.86396e+02  1.09803e+02
  2770    295.326  1.33701e+03 -1.69285e+03 -3.55847e+02  1.03908e+02
  2780    284.351  1.28732e+03 -1.71000e+03 -4.22678e+02  9.90105e+01
  2790    273.050  1.23616e+03 -1.72244e+03 -4.86279e+02  9.48967e+01
  2800    261.890  1.18563e+03 -1.73204e+03 -5.46406e+02  9.13782e+01
  2810    251.113  1.13684e+03 -1.73957e+03 -6.02723e+02  8.83168e+01
  2820    241.485  1.09326e+03 -1.74776e+03 -6.54500e+02  8.53603e+01
  2830    233.291  1.05616e+03 -1.75867e+03 -7.02508e+02  8.22577e+01
