Step    T(K)    KE(kJ)    PE(kJ)    TotE(kJ)    P(MPa)
     0      0.103  4.64183e-01 -1.73048e+03 -1.73002e+03  1.90233e+02
    10      0.435  1.96477e+00 -1.73197e+03 -1.73001e+03  1.89940e+02
    20      1.303  5.88321e+00 -1.73583e+03 -1.72995e+03  1.89173e+02
    30      2.663  1.20231e+01 -1.74174e+03 -1.72971e+03  1.87974e+02
    40      4.459  2.01297e+01 -1.74926e+03 -1.72914e+03  1.86404e+02
    50      6.636  2.99606e+01 -1.75796e+03 -1.72800e+03  1.84530e+02
    60      9.159  4.13485e+01 -1.76739e+03 -1.72604e+03  1.82419e+02
    70     12.015  5.42445e+01 -1.77724e+03 -1.72299e+03  1.80129e+02
    80     15.225  6.87355e+01 -1.78726e+03 -1.71853e+03  1.77709e+02
    90     18.836  8.50404e+01 -1.79733e+03 -1.71229e+03  1.75195e+02
   100     22.923  1.03493e+02 -1.80738e+03 -1.70389e+03  1.72620e+02
   110     27.581  1.24521e+02 -1.81737e+03 -1.69284e+03  1.70011e+02
   120     32.920  1.48626e+02 -1.82726e+03 -1.67863e+03  1.67396e+02
   130     39.065  1.76370e+02 -1.83700e+03 -1.66063e+03  1.64807e+02
   140     46.151  2.08362e+02 -1.84652e+03 -1.63816e+03  1.62280e+02
   150     54.320  2.45243e+02 -1.85568e+03 -1.61044e+03  1.59859e+02
   160     63.717  2.87664e+02 -1.86433e+03 -1.57666e+03  1.57594e+02
   170     74.480  3.36259e+02 -1.87225e+03 -1.53599e+03  1.55542e+02
   180     86.735  3.91587e+02 -1.87920e+03 -1.48761e+03  1.53761e+02
   190    100.575  4.54071e+02 -1.88492e+03 -1.43085e+03  1.52312e+02
   200    116.042  5.23903e+02 -1.88913e+03 -1.36523e+03  1.51251e+02
   210    133.103  6.00926e+02 -1.89158e+03 -1.29065e+03  1.50622e+02
   220    151.612  6.84489e+02 -1.89203e+03 -1.20754e+03  1.50447e+02
   230    171.279  7.73284e+02 -1.89032e+03 -1.11704e+03  1.50722e+02
   240    191.633  8.65178e+02 -1.88631e+03 -1.02113e+03  1.51408e+02
   250    211.987  9.57071e+02 -1.87985e+03 -9.22777e+02  1.52433e+02
   260    231.424  1.04482e+03 -1.87071e+03 -8.25890e+02  1.53697e+02
   270    248.812  1.12332e+03 -1.85847e+03 -7.35145e+02  1.55089e+02
   280    262.882  1.18685e+03 -1.84242e+03 -6.55575e+02  1.56498e+02
   290    272.447  1.23003e+03 -1.82197e+03 -5.91937e+02  1.57808e+02
   300    276.803  1.24970e+03 -1.79765e+03 -5.47955e+02  1.58808e+02
   310    276.105  1.24655e+03 -1.77224e+03 -5.25688e+02  1.59135e+02
   320    271.133  1.22410e+03 -1.74945e+03 -5.25353e+02  1.58397e+02
   330    262.705  1.18605e+03 -1.73165e+03 -5.45602e+02  1.56392e+02
   340    251.649  1.13613e+03 -1.72009e+03 -5.83962e+02  1.53088e+02
   350    238.801  1.07813e+03 -1.71542e+03 -6.37295e+02  1.48562e+02
   360    224.689  1.01442e+03 -1.71662e+03 -7.02199e+02  1.43078e+02
   370    209.515  9.45910e+02 -1.72112e+03 -7.75207e+02  1.37058e+02
   380    193.478  8.73504e+02 -1.72642e+03 -8.52911e+02  1.30918e+02
   390    176.973  7.98989e+02 -1.73113e+03 -9.32137e+02  1.24950e+02
   400    160.548  7.24833e+02 -1.73500e+03 -1.01016e+03  1.19302e+02
   410    144.756  6.53536e+02 -1.73843e+03 -1.08489e+03  1.14022e+02
   420    130.050  5.87141e+02 -1.74206e+03 -1.15492e+03  1.09095e+02
   430    116.729  5.27003e+02 -1.74648e+03 -1.21948e+03  1.04478e+02
   440    104.934  4.73751e+02 -1.75204e+03 -1.27829e+03  1.00123e+02
   450     94.667  4.27397e+02 -1.75888e+03 -1.33148e+03  9.59902e+01
   460     85.841  3.87551e+02 -1.76692e+03 -1.37937e+03  9.20493e+01
   470     78.334  3.53660e+02 -1.77606e+03 -1.42240e+03  8.82696e+01
   480     72.028  3.25190e+02 -1.78627e+03 -1.46108e+03  8.46136e+01
   490     66.826  3.01702e+02 -1.79762e+03 -1.49592e+03  8.10341e+01
   500     62.651  2.82854e+02 -1.81029e+03 -1.52744e+03  7.74784e+01
   510     59.435  2.68336e+02 -1.82447e+03 -1.55613e+03  7.38965e+01
   520     57.102  2.57803e+02 -1.84026e+03 -1.58246e+03  7.02507e+01
   530     55.557  2.50828e+02 -1.85764e+03 -1.60681e+03  6.65221e+01
   540     54.691  2.46914e+02 -1.87646e+03 -1.62955e+03  6.27115e+01
   550     54.387  2.45545e+02 -1.89647e+03 -1.65093e+03  5.88339e+01
   560     54.542  2.46242e+02 -1.91740e+03 -1.67116e+03  5.49113e+01
   570     55.067  2.48612e+02 -1.93900e+03 -1.69039e+03  5.09666e+01
   580     55.895  2.52350e+02 -1.96109e+03 -1.70874e+03  4.70194e+01
   590     56.975  2.57227e+02 -1.98350e+03 -1.72627e+03  4.30865e+01
   600     58.266  2.63055e+02 -2.00611e+03 -1.74306e+03  3.91832e+01
   610     59.727  2.69653e+02 -2.02879e+03 -1.75913e+03  3.53264e+01
   620     61.313  2.76814e+02 -2.05133e+03 -1.77452e+03  3.15373e+01
   630     62.969  2.84287e+02 -2.07352e+03 -1.78923e+03  2.78426e+01
   640     64.629  2.91784e+02 -2.09505e+03 -1.80327e+03  2.42744e+01
   650     66.228  2.99004e+02 -2.11562e+03 -1.81662e+03  2.08665e+01
   660     67.710  3.05692e+02 -2.13495e+03 -1.82926e+03  1.76479e+01
   670     69.047  3.11732e+02 -2.15290e+03 -1.84117e+03  1.46336e+01
   680     70.263  3.17221e+02 -2.16954e+03 -1.85232e+03  1.18160e+01
   690     71.429  3.22482e+02 -2.18519e+03 -1.86271e+03  9.16407e+00
   700     72.636  3.27932e+02 -2.20027e+03 -1.87233e+03  6.63698e+00
   710     73.944  3.33840e+02 -2.21506e+03 -1.88122e+03  4.20825e+00
   720     75.340  3.40142e+02 -2.22954e+03 -1.88939e+03  1.88480e+00
   730     76.737  3.46448e+02 -2.24332e+03 -1.89687e+03 -2.93018e-01
   740     78.011  3.52198e+02 -2.25586e+03 -1.90366e+03 -2.26739e+00
   750     79.042  3.56856e+02 -2.26663e+03 -1.90977e+03 -3.98377e+00
   760     79.757  3.60085e+02 -2.27528e+03 -1.91520e+03 -5.41004e+00
   770     80.155  3.61882e+02 -2.28180e+03 -1.91992e+03 -6.55044e+00
   780     80.315  3.62605e+02 -2.28655e+03 -1.92394e+03 -7.44830e+00
   790     80.371  3.62856e+02 -2.29010e+03 -1.92725e+03 -8.17307e+00
   800     80.462  3.63268e+02 -2.29311e+03 -1.92984e+03 -8.79749e+00
   810     80.695  3.64316e+02 -2.29604e+03 -1.93172e+03 -9.37705e+00
   820     81.117  3.66223e+02 -2.29913e+03 -1.93291e+03 -9.93893e+00
   830     81.718  3.68937e+02 -2.30234e+03 -1.93340e+03 -1.04798e+01
   840     82.436  3.72180e+02 -2.30540e+03 -1.93322e+03 -1.09705e+01
   850     83.183  3.75551e+02 -2.30793e+03 -1.93238e+03 -1.13687e+01
   860     83.879  3.78692e+02 -2.30958e+03 -1.93089e+03 -1.16362e+01
   870     84.488  3.81441e+02 -2.31021e+03 -1.92877e+03 -1.17557e+01
   880     85.038  3.83924e+02 -2.30997e+03 -1.92604e+03 -1.17408e+01
   890     85.614  3.86527e+02 -2.30925e+03 -1.92272e+03 -1.16327e+01
   900     86.318  3.89705e+02 -2.30851e+03 -1.91881e+03 -1.14815e+01
   910     87.206  3.93713e+02 -2.30803e+03 -1.91432e+03 -1.13191e+01
   920     88.261  3.98479e+02 -2.30775e+03 -1.90927e+03 -1.11465e+01
   930     89.427  4.03741e+02 -2.30743e+03 -1.90369e+03 -1.09463e+01
   940     90.661  4.09312e+02 -2.30690e+03 -1.89759e+03 -1.07074e+01
   950     91.960  4.15176e+02 -2.30620e+03 -1.89102e+03 -1.04330e+01
   960     93.325  4.21338e+02 -2.30536e+03 -1.88402e+03 -1.01273e+01
   970     94.720  4.27638e+02 -2.30426e+03 -1.87662e+03 -9.77804e+00
   980     96.079  4.33772e+02 -2.30266e+03 -1.86889e+03 -9.36028e+00
   990     97.340  4.39464e+02 -2.30033e+03 -1.86087e+03 -8.85386e+00
  1000     98.481  4.44619e+02 -2.29725e+03 -1.85263e+03 -8.25928e+00
  1010     99.558  4.49480e+02 -2.29370e+03 -1.84423e+03 -7.61201e+00
  1020    100.722  4.54733e+02 -2.29044e+03 -1.83570e+03 -6.98966e+00
  1030    102.155  4.61207e+02 -2.28831e+03 -1.82710e+03 -6.48019e+00
  1040    103.918  4.69165e+02 -2.28763e+03 -1.81846e+03 -6.11524e+00
  1050    105.878  4.78013e+02 -2.28786e+03 -1.80985e+03 -5.84336e+00
  1060    107.817  4.86765e+02 -2.28811e+03 -1.80135e+03 -5.57523e+00
  1070    109.555  4.94613e+02 -2.28770e+03 -1.79308e+03 -5.23843e+00
  1080    110.987  5.01077e+02 -2.28624e+03 -1.78517e+03 -4.79310e+00
  1090    112.051  5.05883e+02 -2.28359e+03 -1.77771e+03 -4.22123e+00
  1100    112.705  5.08835e+02 -2.27963e+03 -1.77079e+03 -3.51509e+00
  1110    112.917  5.09793e+02 -2.27429e+03 -1.76450e+03 -2.67429e+00
  1120    112.695  5.08791e+02 -2.26764e+03 -1.75885e+03 -1.71679e+00
  1130    112.130  5.06238e+02 -2.26010e+03 -1.75386e+03 -6.96411e-01
  1140    111.396  5.02923e+02 -2.25243e+03 -1.74951e+03  2.97953e-01
  1150    110.696  4.99767e+02 -2.24552e+03 -1.74575e+03  1.16787e+00
  1160    110.206  4.97553e+02 -2.24010e+03 -1.74254e+03  1.83132e+00
  1170    110.048  4.96841e+02 -2.23669e+03 -1.73985e+03  2.23258e+00
  1180    110.284  4.97905e+02 -2.23556e+03 -1.73766e+03  2.34794e+00
  1190    110.883  5.00609e+02 -2.23657e+03 -1.73596e+03  2.19646e+00
  1200    111.719  5.04384e+02 -2.23918e+03 -1.73480e+03  1.84025e+00
  1210    112.618  5.08443e+02 -2.24266e+03 -1.73422e+03  1.36319e+00
  1220    113.411  5.12023e+02 -2.24629e+03 -1.73427e+03  8.47904e-01
  1230    113.942  5.14422e+02 -2.24943e+03 -1.73501e+03  3.71107e-01
  1240    114.059  5.14950e+02 -2.25140e+03 -1.73645e+03  7.82029e-03
  1250    113.622  5.12974e+02 -2.25159e+03 -1.73862e+03 -1.74043e-01
  1260    112.541  5.08095e+02 -2.24955e+03 -1.74145e+03 -1.31533e-01
  1270    110.833  5.00386e+02 -2.24526e+03 -1.74488e+03  1.28765e-01
  1280    108.676  4.90645e+02 -2.23942e+03 -1.74877e+03  5.26201e-01
  1290    106.421  4.80463e+02 -2.23347e+03 -1.75301e+03  9.01626e-01
  1300    104.481  4.71704e+02 -2.22916e+03 -1.75746e+03  1.07063e+00
  1310    103.100  4.65472e+02 -2.22752e+03 -1.76205e+03  9.24501e-01
  1320    102.246  4.61614e+02 -2.22835e+03 -1.76673e+03  4.80833e-01
  1330    101.709  4.59190e+02 -2.23068e+03 -1.77148e+03 -1.59804e-01
  1340    101.259  4.57160e+02 -2.23345e+03 -1.77629e+03 -8.80973e-01
  1350    100.721  4.54729e+02 -2.23585e+03 -1.78113e+03 -1.58761e+00
  1360     99.993  4.51444e+02 -2.23740e+03 -1.78596e+03 -2.21944e+00
  1370     99.069  4.47274e+02 -2.23802e+03 -1.79074e+03 -2.75996e+00
  1380     98.045  4.42648e+02 -2.23809e+03 -1.79544e+03 -3.24121e+00
  1390     97.087  4.38324e+02 -2.23832e+03 -1.79999e+03 -3.72995e+00
  1400     96.354  4.35016e+02 -2.23940e+03 -1.80438e+03 -4.29013e+00
  1410     95.895  4.32940e+02 -2.24152e+03 -1.80858e+03 -4.93787e+00
  1420     95.597  4.31595e+02 -2.24418e+03 -1.81258e+03 -5.61889e+00
  1430     95.240  4.29986e+02 -2.24636e+03 -1.81638e+03 -6.23102e+00
  1440     94.625  4.27210e+02 -2.24715e+03 -1.81994e+03 -6.68188e+00
  1450     93.693  4.23000e+02 -2.24625e+03 -1.82325e+03 -6.94387e+00
  1460     92.566  4.17912e+02 -2.24416e+03 -1.82625e+03 -7.07321e+00
  1470     91.491  4.13061e+02 -2.24196e+03 -1.82890e+03 -7.18444e+00
  1480     90.719  4.09573e+02 -2.24074e+03 -1.83116e+03 -7.39522e+00
  1490     90.386  4.08069e+02 -2.24111e+03 -1.83304e+03 -7.77292e+00
  1500     90.475  4.08473e+02 -2.24299e+03 -1.83452e+03 -8.31349e+00
  1510     90.858  4.10203e+02 -2.24581e+03 -1.83561e+03 -8.95799e+00
  1520     91.366  4.12494e+02 -2.24881e+03 -1.83632e+03 -9.62474e+00
  1530     91.842  4.14643e+02 -2.25132e+03 -1.83668e+03 -1.02361e+01
  1540     92.197  4.16248e+02 -2.25294e+03 -1.83670e+03 -1.07435e+01
  1550     92.458  4.17427e+02 -2.25381e+03 -1.83638e+03 -1.11488e+01
  1560     92.740  4.18696e+02 -2.25444e+03 -1.83575e+03 -1.14927e+01
  1570     93.117  4.20402e+02 -2.25521e+03 -1.83481e+03 -1.18007e+01
  1580     93.537  4.22296e+02 -2.25586e+03 -1.83356e+03 -1.20441e+01
  1590     93.869  4.23797e+02 -2.25584e+03 -1.83204e+03 -1.21655e+01
  1600     94.042  4.24574e+02 -2.25482e+03 -1.83025e+03 -1.21351e+01
  1610     94.083  4.24763e+02 -2.25296e+03 -1.82820e+03 -1.19713e+01
  1620     94.082  4.24758e+02 -2.25065e+03 -1.82589e+03 -1.17218e+01
  1630     94.137  4.25007e+02 -2.24833e+03 -1.82333e+03 -1.14428e+01
  1640     94.368  4.26046e+02 -2.24655e+03 -1.82051e+03 -1.11986e+01
  1650     94.914  4.28513e+02 -2.24594e+03 -1.81743e+03 -1.10592e+01
  1660     95.868  4.32820e+02 -2.24693e+03 -1.81411e+03 -1.10674e+01
  1670     97.171  4.38704e+02 -2.24928e+03 -1.81057e+03 -1.11957e+01
  1680     98.615  4.45224e+02 -2.25207e+03 -1.80685e+03 -1.13493e+01
  1690     99.952  4.51261e+02 -2.25427e+03 -1.80301e+03 -1.14159e+01
  1700    101.000  4.55990e+02 -2.25510e+03 -1.79911e+03 -1.13142e+01
  1710    101.678  4.59050e+02 -2.25427e+03 -1.79522e+03 -1.10120e+01
  1720    101.998  4.60496e+02 -2.25188e+03 -1.79139e+03 -1.05224e+01
  1730    102.035  4.60663e+02 -2.24829e+03 -1.78763e+03 -9.89000e+00
  1740    101.901  4.60059e+02 -2.24403e+03 -1.78397e+03 -9.17937e+00
  1750    101.743  4.59345e+02 -2.23974e+03 -1.78039e+03 -8.47022e+00
  1760    101.739  4.59327e+02 -2.23622e+03 -1.77689e+03 -7.85417e+00
  1770    102.064  4.60793e+02 -2.23426e+03 -1.77347e+03 -7.41625e+00
  1780    102.804  4.64134e+02 -2.23425e+03 -1.77012e+03 -7.19773e+00
  1790    103.883  4.69007e+02 -2.23588e+03 -1.76687e+03 -7.16502e+00
  1800    105.077  4.74398e+02 -2.23816e+03 -1.76376e+03 -7.21853e+00
  1810    106.123  4.79117e+02 -2.23997e+03 -1.76086e+03 -7.24120e+00
  1820    106.820  4.82265e+02 -2.24048e+03 -1.75822e+03 -7.14551e+00
  1830    107.076  4.83421e+02 -2.23931e+03 -1.75589e+03 -6.89297e+00
  1840    106.910  4.82671e+02 -2.23656e+03 -1.75389e+03 -6.49702e+00
  1850    106.453  4.80609e+02 -2.23284e+03 -1.75223e+03 -6.02231e+00
  1860    105.930  4.78247e+02 -2.22913e+03 -1.75088e+03 -5.57302e+00
  1870    105.579  4.76662e+02 -2.22648e+03 -1.74981e+03 -5.25654e+00
  1880    105.528  4.76432e+02 -2.22545e+03 -1.74902e+03 -5.12816e+00
  1890    105.704  4.77228e+02 -2.22571e+03 -1.74848e+03 -5.15296e+00
  1900    105.878  4.78012e+02 -2.22622e+03 -1.74821e+03 -5.22675e+00
  1910    105.830  4.77794e+02 -2.22600e+03 -1.74821e+03 -5.24975e+00
  1920    105.503  4.76322e+02 -2.22481e+03 -1.74849e+03 -5.19292e+00
  1930    105.019  4.74134e+02 -2.22315e+03 -1.74902e+03 -5.10406e+00
  1940    104.551  4.72021e+02 -2.22180e+03 -1.74978e+03 -5.05560e+00
  1950    104.179  4.70344e+02 -2.22109e+03 -1.75075e+03 -5.08039e+00
  1960    103.835  4.68790e+02 -2.22070e+03 -1.75191e+03 -5.14765e+00
  1970    103.375  4.66713e+02 -2.21995e+03 -1.75324e+03 -5.19594e+00
  1980    102.721  4.63758e+02 -2.21847e+03 -1.75471e+03 -5.19255e+00
  1990    101.946  4.60259e+02 -2.21655e+03 -1.75629e+03 -5.17160e+00
  2000    101.253  4.57131e+02 -2.21508e+03 -1.75795e+03 -5.22222e+00
  2010    100.843  4.55283e+02 -2.21494e+03 -1.75965e+03 -5.43119e+00
  2020    100.772  4.54962e+02 -2.21635e+03 -1.76139e+03 -5.81845e+00
  2030    100.898  4.55528e+02 -2.21869e+03 -1.76316e+03 -6.31669e+00
  2040    100.974  4.55874e+02 -2.22084e+03 -1.76496e+03 -6.81264e+00
  2050    100.808  4.55121e+02 -2.22193e+03 -1.76681e+03 -7.21554e+00
  2060    100.363  4.53116e+02 -2.22179e+03 -1.76868e+03 -7.50666e+00
  2070     99.782  4.50492e+02 -2.22104e+03 -1.77055e+03 -7.74579e+00
  2080     99.285  4.48247e+02 -2.22065e+03 -1.77240e+03 -8.02938e+00
  2090     99.023  4.47065e+02 -2.22127e+03 -1.77420e+03 -8.42444e+00
  2100     99.009  4.47002e+02 -2.22296e+03 -1.77596e+03 -8.93642e+00
  2110     99.176  4.47754e+02 -2.22543e+03 -1.77767e+03 -9.53327e+00
  2120     99.455  4.49016e+02 -2.22836e+03 -1.77935e+03 -1.01807e+01
  2130     99.804  4.50589e+02 -2.23159e+03 -1.78100e+03 -1.08532e+01
  2140    100.189  4.52328e+02 -2.23497e+03 -1.78264e+03 -1.15321e+01
  2150    100.591  4.54145e+02 -2.23844e+03 -1.78430e+03 -1.22048e+01
  2160    100.994  4.55961e+02 -2.24194e+03 -1.78598e+03 -1.28613e+01
  2170    101.356  4.57595e+02 -2.24531e+03 -1.78771e+03 -1.34829e+01
  2180    101.614  4.58763e+02 -2.24827e+03 -1.78951e+03 -1.40416e+01
  2190    101.722  4.59251e+02 -2.25063e+03 -1.79138e+03 -1.45170e+01
  2200    101.683  4.59076e+02 -2.25239e+03 -1.79332e+03 -1.49099e+01
  2210    101.530  4.58381e+02 -2.25371e+03 -1.79533e+03 -1.52326e+01
  2220    101.265  4.57184e+02 -2.25459e+03 -1.79741e+03 -1.54850e+01
  2230    100.836  4.55251e+02 -2.25478e+03 -1.79953e+03 -1.56427e+01
  2240    100.169  4.52240e+02 -2.25391e+03 -1.80167e+03 -1.56721e+01
  2250     99.230  4.47999e+02 -2.25180e+03 -1.80380e+03 -1.55599e+01
  2260     98.083  4.42819e+02 -2.24868e+03 -1.80586e+03 -1.53373e+01
  2270     96.889  4.37432e+02 -2.24525e+03 -1.80782e+03 -1.50806e+01
  2280     95.850  4.32739e+02 -2.24235e+03 -1.80961e+03 -1.48821e+01
  2290     95.108  4.29387e+02 -2.24059e+03 -1.81120e+03 -1.48087e+01
  2300     94.692  4.27509e+02 -2.24008e+03 -1.81257e+03 -1.48746e+01
  2310     94.549  4.26866e+02 -2.24058e+03 -1.81371e+03 -1.50546e+01
  2320     94.615  4.27165e+02 -2.24178e+03 -1.81461e+03 -1.53140e+01
  2330     94.818  4.28079e+02 -2.24336e+03 -1.81528e+03 -1.56128e+01
  2340     95.048  4.29118e+02 -2.24484e+03 -1.81572e+03 -1.58964e+01
  2350     95.198  4.29795e+02 -2.24575e+03 -1.81595e+03 -1.61136e+01
  2360     95.267  4.30106e+02 -2.24608e+03 -1.81597e+03 -1.62613e+01
  2370     95.396  4.30688e+02 -2.24647e+03 -1.81578e+03 -1.63987e+01
  2380     95.739  4.32240e+02 -2.24763e+03 -1.81539e+03 -1.65905e+01
  2390     96.303  4.34783e+02 -2.24959e+03 -1.81481e+03 -1.68360e+01
  2400     96.947  4.37691e+02 -2.25175e+03 -1.81406e+03 -1.70697e+01
  2410     97.489  4.40137e+02 -2.25330e+03 -1.81317e+03 -1.72036e+01
  2420     97.750  4.41318e+02 -2.25347e+03 -1.81215e+03 -1.71517e+01
  2430     97.590  4.40593e+02 -2.25163e+03 -1.81104e+03 -1.68462e+01
  2440     96.960  4.37750e+02 -2.24756e+03 -1.80981e+03 -1.62645e+01
  2450     95.962  4.33244e+02 -2.24170e+03 -1.80846e+03 -1.54525e+01
  2460     94.813  4.28055e+02 -2.23500e+03 -1.80694e+03 -1.45100e+01
  2470     93.726  4.23148e+02 -2.22837e+03 -1.80522e+03 -1.35381e+01
  2480     92.815  4.19038e+02 -2.22229e+03 -1.80325e+03 -1.25975e+01
  2490     92.107  4.15839e+02 -2.21683e+03 -1.80099e+03 -1.17105e+01
  2500     91.609  4.13594e+02 -2.21201e+03 -1.79842e+03 -1.08925e+01
  2510     91.373  4.12527e+02 -2.20804e+03 -1.79551e+03 -1.01747e+01
  2520     91.487  4.13042e+02 -2.20528e+03 -1.79224e+03 -9.60423e+00
  2530     92.047  4.15568e+02 -2.20417e+03 -1.78861e+03 -9.22811e+00
  2540     93.123  4.20429e+02 -2.20503e+03 -1.78461e+03 -9.07933e+00
  2550     94.742  4.27739e+02 -2.20799e+03 -1.78025e+03 -9.16585e+00
  2560     96.841  4.37214e+02 -2.21280e+03 -1.77558e+03 -9.45310e+00
  2570     99.239  4.48040e+02 -2.21870e+03 -1.77066e+03 -9.85333e+00
  2580    101.674  4.59032e+02 -2.22461e+03 -1.76558e+03 -1.02442e+01
  2590    103.878  4.68983e+02 -2.22944e+03 -1.76045e+03 -1.05043e+01
  2600    105.633  4.76907e+02 -2.23231e+03 -1.75540e+03 -1.05394e+01
  2610    106.803  4.82190e+02 -2.23274e+03 -1.75055e+03 -1.02979e+01
  2620    107.379  4.84789e+02 -2.23076e+03 -1.74597e+03 -9.78943e+00
  2630    107.512  4.85392e+02 -2.22712e+03 -1.74173e+03 -9.09753e+00
  2640    107.463  4.85167e+02 -2.22302e+03 -1.73785e+03 -8.35313e+00
  2650    107.451  4.85113e+02 -2.21945e+03 -1.73433e+03 -7.67151e+00
  2660    107.608  4.85824e+02 -2.21699e+03 -1.73117e+03 -7.12764e+00
  2670    108.062  4.87873e+02 -2.21624e+03 -1.72836e+03 -6.78794e+00
  2680    108.895  4.91635e+02 -2.21757e+03 -1.72593e+03 -6.69004e+00
  2690    109.943  4.96366e+02 -2.22028e+03 -1.72392e+03 -6.75927e+00
  2700    110.820  5.00326e+02 -2.22270e+03 -1.72237e+03 -6.82302e+00
  2710    111.203  5.02054e+02 -2.22341e+03 -1.72136e+03 -6.73308e+00
  2720    110.990  5.01091e+02 -2.22199e+03 -1.72089e+03 -6.43682e+00
  2730    110.249  4.97749e+02 -2.21872e+03 -1.72098e+03 -5.95886e+00
  2740    109.115  4.92626e+02 -2.21418e+03 -1.72156e+03 -5.35589e+00
  2750    107.730  4.86372e+02 -2.20894e+03 -1.72257e+03 -4.69379e+00
  2760    106.260  4.79738e+02 -2.20368e+03 -1.72394e+03 -4.05095e+00
  2770    104.905  4.73618e+02 -2.19921e+03 -1.72559e+03 -3.52032e+00
  2780    103.857  4.68889e+02 -2.19634e+03 -1.72745e+03 -3.19272e+00
  2790    103.250  4.66149e+02 -2.19561e+03 -1.72947e+03 -3.13044e+00
  2800    103.111  4.65519e+02 -2.19715e+03 -1.73163e+03 -3.34763e+00
  2810    103.364  4.66662e+02 -2.20059e+03 -1.73393e+03 -3.81070e+00
  2820    103.894  4.69057e+02 -2.20546e+03 -1.73640e+03 -4.46538e+00
  2830    104.613  4.72302e+02 -2.21137e+03 -1.73906e+03 -5.26477e+00
